이름,최영우
생년월일,2001. 7. 5.
기록된 날짜,2022-09-12 10:47:33 +0900
분류,양호하지 않은 기록
증상,
소프트웨어 버전,1.90
기기,"Watch6,6"
샘플률,512헤르츠
유도,유도 I
단위,µV
36.18,10:47:34.000
40.795,10:47:34.001
45.01,10:47:34.003
48.867,10:47:34.005
52.452,10:47:34.007
55.973,10:47:34.009
59.629,10:47:34.011
63.511,10:47:34.013
67.633,10:47:34.015
71.831,10:47:34.017
75.826,10:47:34.019
79.435,10:47:34.021
82.543,10:47:34.023
85.123,10:47:34.025
87.26,10:47:34.027
88.914,10:47:34.029
89.909,10:47:34.031
90.064,10:47:34.033
89.072,10:47:34.035
86.583,10:47:34.037
82.329,10:47:34.039
75.78,10:47:34.041
66.238,10:47:34.042
53.427,10:47:34.044
37.382,10:47:34.046
18.533,10:47:34.048
-2.017,10:47:34.050
-23.406,10:47:34.052
-45.534,10:47:34.054
-68.334,10:47:34.056
-91.875,10:47:34.058
-116.867,10:47:34.060
-143.876,10:47:34.062
-173.771,10:47:34.064
-208.467,10:47:34.066
-249.093,10:47:34.068
-295.074,10:47:34.070
-345.161,10:47:34.072
-397.069,10:47:34.074
-447.308,10:47:34.076
-493.204,10:47:34.078
-532.115,10:47:34.080
-560.251,10:47:34.082
-575.132,10:47:34.083
-576.279,10:47:34.085
-564.094,10:47:34.087
-540.842,10:47:34.089
-510.395,10:47:34.091
-475.545,10:47:34.093
-438.966,10:47:34.095
-404.292,10:47:34.097
-373.825,10:47:34.099
-348.641,10:47:34.101
-329.36,10:47:34.103
-314.916,10:47:34.105
-303.18,10:47:34.107
-293.008,10:47:34.109
-283.431,10:47:34.111
-273.145,10:47:34.113
-261.678,10:47:34.115
-248.804,10:47:34.117
-234.327,10:47:34.119
-218.893,10:47:34.121
-203.412,10:47:34.123
-188.228,10:47:34.125
-173.466,10:47:34.126
-159.112,10:47:34.128
-144.85,10:47:34.130
-130.468,10:47:34.132
-115.867,10:47:34.134
-100.817,10:47:34.136
-85.036,10:47:34.138
-68.337,10:47:34.140
-50.666,10:47:34.142
-32.063,10:47:34.144
-12.697,10:47:34.146
7.103,10:47:34.148
27.136,10:47:34.150
47.4,10:47:34.152
67.577,10:47:34.154
87.03,10:47:34.156
105.547,10:47:34.158
123.049,10:47:34.160
139.219,10:47:34.162
154.748,10:47:34.164
168.85,10:47:34.166
178.016,10:47:34.167
182.824,10:47:34.169
186.317,10:47:34.171
192.687,10:47:34.173
212.945,10:47:34.175
248.474,10:47:34.177
287.533,10:47:34.179
320.179,10:47:34.181
328.873,10:47:34.183
307.164,10:47:34.185
273.423,10:47:34.187
241.261,10:47:34.189
226.884,10:47:34.191
240.417,10:47:34.193
265.523,10:47:34.195
290.454,10:47:34.197
307.289,10:47:34.199
307.992,10:47:34.201
301.257,10:47:34.203
293.837,10:47:34.205
286.727,10:47:34.207
283.125,10:47:34.208
280.779,10:47:34.210
277.351,10:47:34.212
273.847,10:47:34.214
270.207,10:47:34.216
266.561,10:47:34.218
263.443,10:47:34.220
260.645,10:47:34.222
257.97,10:47:34.224
255.526,10:47:34.226
253.328,10:47:34.228
251.308,10:47:34.230
249.496,10:47:34.232
247.968,10:47:34.234
246.767,10:47:34.236
245.949,10:47:34.238
245.574,10:47:34.240
245.65,10:47:34.242
246.203,10:47:34.244
247.236,10:47:34.246
248.727,10:47:34.248
250.723,10:47:34.250
253.261,10:47:34.251
256.351,10:47:34.253
260.019,10:47:34.255
264.2,10:47:34.257
268.776,10:47:34.259
273.765,10:47:34.261
279.221,10:47:34.263
284.868,10:47:34.265
290.382,10:47:34.267
295.886,10:47:34.269
301.314,10:47:34.271
306.56,10:47:34.273
312.17,10:47:34.275
316.461,10:47:34.277
317.79,10:47:34.279
318.359,10:47:34.281
318.792,10:47:34.283
323.186,10:47:34.285
336.454,10:47:34.287
353.044,10:47:34.289
369.238,10:47:34.291
379.529,10:47:34.292
376.371,10:47:34.294
366.361,10:47:34.296
355.085,10:47:34.298
346.363,10:47:34.300
346.537,10:47:34.302
351.027,10:47:34.304
355.199,10:47:34.306
358.013,10:47:34.308
356.65,10:47:34.310
352.742,10:47:34.312
348.398,10:47:34.314
343.228,10:47:34.316
337.514,10:47:34.318
331.132,10:47:34.320
323.676,10:47:34.322
315.443,10:47:34.324
306.677,10:47:34.326
297.324,10:47:34.328
287.387,10:47:34.330
276.913,10:47:34.332
265.926,10:47:34.333
254.441,10:47:34.335
242.485,10:47:34.337
230.053,10:47:34.339
217.137,10:47:34.341
203.798,10:47:34.343
190.102,10:47:34.345
176.085,10:47:34.347
161.782,10:47:34.349
147.22,10:47:34.351
132.416,10:47:34.353
117.397,10:47:34.355
102.187,10:47:34.357
86.797,10:47:34.359
71.233,10:47:34.361
55.503,10:47:34.363
39.615,10:47:34.365
23.586,10:47:34.367
7.441,10:47:34.369
-8.812,10:47:34.371
-25.172,10:47:34.373
-41.657,10:47:34.375
-58.31,10:47:34.376
-75.16,10:47:34.378
-92.22,10:47:34.380
-109.501,10:47:34.382
-127,10:47:34.384
-144.701,10:47:34.386
-162.57,10:47:34.388
-180.539,10:47:34.390
-198.491,10:47:34.392
-216.319,10:47:34.394
-233.952,10:47:34.396
-251.367,10:47:34.398
-268.604,10:47:34.400
-285.713,10:47:34.402
-302.727,10:47:34.404
-319.66,10:47:34.406
-336.522,10:47:34.408
-353.362,10:47:34.410
-370.259,10:47:34.412
-387.293,10:47:34.414
-404.498,10:47:34.416
-421.878,10:47:34.417
-439.567,10:47:34.419
-457.888,10:47:34.421
-477.249,10:47:34.423
-498.033,10:47:34.425
-520.472,10:47:34.427
-544.552,10:47:34.429
-570.215,10:47:34.431
-597.564,10:47:34.433
-626.322,10:47:34.435
-655.687,10:47:34.437
-685.208,10:47:34.439
-714.634,10:47:34.441
-743.476,10:47:34.443
-772.033,10:47:34.445
-799.052,10:47:34.447
-820.831,10:47:34.449
-837.688,10:47:34.451
-852.361,10:47:34.453
-869.314,10:47:34.455
-897.708,10:47:34.457
-936.692,10:47:34.458
-975.897,10:47:34.460
-1005.273,10:47:34.462
-1010.804,10:47:34.464
-991.136,10:47:34.466
-959.573,10:47:34.468
-926.662,10:47:34.470
-903.766,10:47:34.472
-893.655,10:47:34.474
-886.978,10:47:34.476
-877.892,10:47:34.478
-862.609,10:47:34.480
-840.188,10:47:34.482
-815.219,10:47:34.484
-790.334,10:47:34.486
-766.134,10:47:34.488
-743.411,10:47:34.490
-722.136,10:47:34.492
-702.747,10:47:34.494
-686.44,10:47:34.496
-673.511,10:47:34.498
-663.244,10:47:34.500
-655.269,10:47:34.501
-649.416,10:47:34.503
-645.151,10:47:34.505
-642.751,10:47:34.507
-640.577,10:47:34.509
-634.309,10:47:34.511
-624.442,10:47:34.513
-614.13,10:47:34.515
-608.723,10:47:34.517
-618.583,10:47:34.519
-642.183,10:47:34.521
-667.667,10:47:34.523
-683.248,10:47:34.525
-672.76,10:47:34.527
-634.658,10:47:34.529
-582.966,10:47:34.531
-529.068,10:47:34.533
-485.223,10:47:34.535
-453.361,10:47:34.537
-423.268,10:47:34.539
-386.813,10:47:34.541
-338.019,10:47:34.542
-278.251,10:47:34.544
-213.137,10:47:34.546
-149.421,10:47:34.548
-92.729,10:47:34.550
-38.415,10:47:34.552
17.092,10:47:34.554
78.557,10:47:34.556
152.119,10:47:34.558
230.093,10:47:34.560
306.099,10:47:34.562
375.592,10:47:34.564
431.514,10:47:34.566
477.916,10:47:34.568
519.01,10:47:34.570
555.327,10:47:34.572
589.354,10:47:34.574
619.395,10:47:34.576
643.101,10:47:34.578
660.7,10:47:34.580
672.501,10:47:34.582
679.271,10:47:34.583
682.057,10:47:34.585
682.413,10:47:34.587
679.772,10:47:34.589
671.46,10:47:34.591
658.922,10:47:34.593
644.307,10:47:34.595
634.341,10:47:34.597
643.262,10:47:34.599
671.128,10:47:34.601
706.421,10:47:34.603
728.999,10:47:34.605
706.463,10:47:34.607
632.344,10:47:34.609
529.39,10:47:34.611
435.534,10:47:34.613
401.605,10:47:34.615
446.278,10:47:34.617
546.768,10:47:34.619
658.855,10:47:34.621
727.784,10:47:34.623
727.344,10:47:34.625
668.853,10:47:34.626
583.802,10:47:34.628
511.032,10:47:34.630
471.022,10:47:34.632
461.361,10:47:34.634
468.217,10:47:34.636
473.058,10:47:34.638
464.816,10:47:34.640
444.647,10:47:34.642
418.691,10:47:34.644
396.535,10:47:34.646
388.293,10:47:34.648
393.456,10:47:34.650
405.595,10:47:34.652
413.916,10:47:34.654
402.645,10:47:34.656
367.508,10:47:34.658
311.672,10:47:34.660
245.839,10:47:34.662
188.793,10:47:34.664
150.536,10:47:34.666
139.09,10:47:34.667
152.08,10:47:34.669
176.892,10:47:34.671
205.968,10:47:34.673
224.724,10:47:34.675
227.86,10:47:34.677
219.14,10:47:34.679
196.666,10:47:34.681
168.386,10:47:34.683
137.978,10:47:34.685
103.682,10:47:34.687
71.693,10:47:34.689
42.901,10:47:34.691
16.28,10:47:34.693
-8.882,10:47:34.695
-41.773,10:47:34.697
-90.883,10:47:34.699
-157.654,10:47:34.701
-236.286,10:47:34.703
-310.38,10:47:34.705
-362.969,10:47:34.707
-386.4,10:47:34.708
-385.254,10:47:34.710
-377.223,10:47:34.712
-379.873,10:47:34.714
-401.563,10:47:34.716
-440.256,10:47:34.718
-482.197,10:47:34.720
-513.799,10:47:34.722
-530.529,10:47:34.724
-534.841,10:47:34.726
-538.602,10:47:34.728
-555.697,10:47:34.730
-588.866,10:47:34.732
-632.931,10:47:34.734
-673.136,10:47:34.736
-688.954,10:47:34.738
-674.033,10:47:34.740
-632.493,10:47:34.742
-577.293,10:47:34.744
-531.104,10:47:34.746
-503.752,10:47:34.748
-495.815,10:47:34.750
-503.671,10:47:34.751
-512.614,10:47:34.753
-515.137,10:47:34.755
-509.664,10:47:34.757
-494.176,10:47:34.759
-475.114,10:47:34.761
-456.916,10:47:34.763
-440.41,10:47:34.765
-428.095,10:47:34.767
-418.725,10:47:34.769
-410.894,10:47:34.771
-405.228,10:47:34.773
-401.573,10:47:34.775
-400.222,10:47:34.777
-401.621,10:47:34.779
-405.445,10:47:34.781
-411.331,10:47:34.783
-419.048,10:47:34.785
-428.342,10:47:34.787
-438.953,10:47:34.789
-450.593,10:47:34.791
-463.023,10:47:34.792
-476.04,10:47:34.794
-489.512,10:47:34.796
-503.411,10:47:34.798
-517.656,10:47:34.800
-532.11,10:47:34.802
-546.622,10:47:34.804
-560.992,10:47:34.806
-575.049,10:47:34.808
-588.7,10:47:34.810
-601.866,10:47:34.812
-614.488,10:47:34.814
-626.58,10:47:34.816
-638.181,10:47:34.818
-649.407,10:47:34.820
-660.482,10:47:34.822
-671.571,10:47:34.824
-682.78,10:47:34.826
-694.171,10:47:34.828
-705.72,10:47:34.830
-717.416,10:47:34.832
-729.294,10:47:34.833
-741.395,10:47:34.835
-753.786,10:47:34.837
-766.522,10:47:34.839
-779.605,10:47:34.841
-793.037,10:47:34.843
-806.828,10:47:34.845
-820.911,10:47:34.847
-835.226,10:47:34.849
-849.647,10:47:34.851
-863.934,10:47:34.853
-877.91,10:47:34.855
-891.374,10:47:34.857
-904.079,10:47:34.859
-915.891,10:47:34.861
-926.697,10:47:34.863
-936.372,10:47:34.865
-944.898,10:47:34.867
-952.14,10:47:34.869
-957.74,10:47:34.871
-961.699,10:47:34.873
-964.336,10:47:34.875
-965.933,10:47:34.876
-967.015,10:47:34.878
-967.747,10:47:34.880
-967.653,10:47:34.882
-966.818,10:47:34.884
-965.988,10:47:34.886
-965.281,10:47:34.888
-964.185,10:47:34.890
-961.822,10:47:34.892
-956.457,10:47:34.894
-947.459,10:47:34.896
-936.259,10:47:34.898
-923.76,10:47:34.900
-909.917,10:47:34.902
-895.37,10:47:34.904
-881.433,10:47:34.906
-870.47,10:47:34.908
-866.755,10:47:34.910
-873.052,10:47:34.912
-888.456,10:47:34.914
-911.532,10:47:34.916
-941.168,10:47:34.917
-975.392,10:47:34.919
-1011.85,10:47:34.921
-1046.532,10:47:34.923
-1072.201,10:47:34.925
-1082.253,10:47:34.927
-1073.853,10:47:34.929
-1045.941,10:47:34.931
-998.429,10:47:34.933
-932.324,10:47:34.935
-848.4,10:47:34.937
-748.893,10:47:34.939
-639.924,10:47:34.941
-528.761,10:47:34.943
-421.006,10:47:34.945
-320.509,10:47:34.947
-229.471,10:47:34.949
-149.248,10:47:34.951
-82.134,10:47:34.953
-30.137,10:47:34.955
7.528,10:47:34.957
33.555,10:47:34.958
51.193,10:47:34.960
62.786,10:47:34.962
69.167,10:47:34.964
70.661,10:47:34.966
68.383,10:47:34.968
63.964,10:47:34.970
58.091,10:47:34.972
50.269,10:47:34.974
39.029,10:47:34.976
23.334,10:47:34.978
3.27,10:47:34.980
-20.581,10:47:34.982
-47.573,10:47:34.984
-77.307,10:47:34.986
-109.303,10:47:34.988
-142.652,10:47:34.990
-176.004,10:47:34.992
-208.235,10:47:34.994
-238.738,10:47:34.996
-267.19,10:47:34.998
-293.565,10:47:35.000
-317.832,10:47:35.001
-339.933,10:47:35.003
-360.022,10:47:35.005
-378.368,10:47:35.007
-395.213,10:47:35.009
-410.777,10:47:35.011
-425.274,10:47:35.013
-438.9,10:47:35.015
-451.969,10:47:35.017
-464.84,10:47:35.019
-477.741,10:47:35.021
-490.846,10:47:35.023
-504.267,10:47:35.025
-518.032,10:47:35.027
-532.168,10:47:35.029
-546.643,10:47:35.031
-561.329,10:47:35.033
-576.068,10:47:35.035
-590.711,10:47:35.037
-605.117,10:47:35.039
-619.181,10:47:35.041
-632.801,10:47:35.042
-645.826,10:47:35.044
-658.097,10:47:35.046
-669.448,10:47:35.048
-679.704,10:47:35.050
-688.746,10:47:35.052
-696.49,10:47:35.054
-702.85,10:47:35.056
-707.776,10:47:35.058
-711.261,10:47:35.060
-713.32,10:47:35.062
-713.999,10:47:35.064
-713.373,10:47:35.066
-711.467,10:47:35.068
-708.292,10:47:35.070
-703.906,10:47:35.072
-698.362,10:47:35.074
-691.652,10:47:35.076
-683.788,10:47:35.078
-674.788,10:47:35.080
-664.658,10:47:35.082
-653.496,10:47:35.083
-641.442,10:47:35.085
-628.51,10:47:35.087
-614.677,10:47:35.089
-600.219,10:47:35.091
-585.456,10:47:35.093
-570.289,10:47:35.095
-554.791,10:47:35.097
-539.07,10:47:35.099
-522.638,10:47:35.101
-507.067,10:47:35.103
-493.894,10:47:35.105
-481.101,10:47:35.107
-468.127,10:47:35.109
-451.205,10:47:35.111
-425.813,10:47:35.113
-397.113,10:47:35.115
-368.57,10:47:35.117
-345.305,10:47:35.119
-334.324,10:47:35.121
-329.556,10:47:35.123
-325.86,10:47:35.125
-319.734,10:47:35.126
-305.345,10:47:35.128
-286.963,10:47:35.130
-268.909,10:47:35.132
-252.184,10:47:35.134
-239.436,10:47:35.136
-229.198,10:47:35.138
-219.57,10:47:35.140
-210.955,10:47:35.142
-203.135,10:47:35.144
-196.259,10:47:35.146
-190.734,10:47:35.148
-186.307,10:47:35.150
-182.769,10:47:35.152
-180.174,10:47:35.154
-178.515,10:47:35.156
-177.741,10:47:35.158
-177.826,10:47:35.160
-178.748,10:47:35.162
-180.472,10:47:35.164
-182.991,10:47:35.166
-186.297,10:47:35.167
-190.321,10:47:35.169
-194.991,10:47:35.171
-200.254,10:47:35.173
-206.039,10:47:35.175
-212.265,10:47:35.177
-218.852,10:47:35.179
-225.704,10:47:35.181
-232.727,10:47:35.183
-239.827,10:47:35.185
-246.905,10:47:35.187
-253.856,10:47:35.189
-260.576,10:47:35.191
-266.969,10:47:35.193
-272.95,10:47:35.195
-278.427,10:47:35.197
-283.303,10:47:35.199
-287.469,10:47:35.201
-290.806,10:47:35.203
-293.218,10:47:35.205
-294.638,10:47:35.207
-295.01,10:47:35.208
-294.288,10:47:35.210
-292.441,10:47:35.212
-289.461,10:47:35.214
-285.378,10:47:35.216
-280.272,10:47:35.218
-274.219,10:47:35.220
-267.26,10:47:35.222
-259.394,10:47:35.224
-250.583,10:47:35.226
-240.801,10:47:35.228
-230.036,10:47:35.230
-218.286,10:47:35.232
-205.558,10:47:35.234
-191.81,10:47:35.236
-176.988,10:47:35.238
-161.066,10:47:35.240
-144.054,10:47:35.242
-125.956,10:47:35.244
-106.743,10:47:35.246
-86.307,10:47:35.248
-64.45,10:47:35.250
-41.012,10:47:35.251
-15.952,10:47:35.253
10.671,10:47:35.255
38.704,10:47:35.257
67.979,10:47:35.259
98.316,10:47:35.261
129.515,10:47:35.263
161.302,10:47:35.265
193.31,10:47:35.267
225.204,10:47:35.269
256.726,10:47:35.271
287.722,10:47:35.273
318.076,10:47:35.275
347.6,10:47:35.277
375.995,10:47:35.279
402.83,10:47:35.281
427.708,10:47:35.283
450.385,10:47:35.285
470.733,10:47:35.287
488.702,10:47:35.289
504.264,10:47:35.291
517.408,10:47:35.292
528.158,10:47:35.294
536.707,10:47:35.296
543.389,10:47:35.298
548.456,10:47:35.300
552.068,10:47:35.302
554.23,10:47:35.304
554.842,10:47:35.306
553.926,10:47:35.308
551.645,10:47:35.310
548.297,10:47:35.312
544.213,10:47:35.314
539.635,10:47:35.316
534.748,10:47:35.318
529.771,10:47:35.320
524.964,10:47:35.322
520.617,10:47:35.324
517.04,10:47:35.326
514.337,10:47:35.328
512.457,10:47:35.330
511.452,10:47:35.332
511.432,10:47:35.333
512.67,10:47:35.335
515.579,10:47:35.337
520.435,10:47:35.339
527.372,10:47:35.341
536.441,10:47:35.343
547.608,10:47:35.345
560.849,10:47:35.347
576.145,10:47:35.349
593.333,10:47:35.351
612.138,10:47:35.353
632.218,10:47:35.355
653.156,10:47:35.357
674.696,10:47:35.359
696.721,10:47:35.361
719.04,10:47:35.363
741.446,10:47:35.365
763.629,10:47:35.367
785.161,10:47:35.369
805.727,10:47:35.371
825.116,10:47:35.373
843.135,10:47:35.375
859.644,10:47:35.376
874.518,10:47:35.378
887.626,10:47:35.380
898.98,10:47:35.382
908.704,10:47:35.384
916.971,10:47:35.386
924.018,10:47:35.388
929.991,10:47:35.390
934.933,10:47:35.392
938.917,10:47:35.394
942.005,10:47:35.396
944.289,10:47:35.398
945.912,10:47:35.400
946.948,10:47:35.402
947.415,10:47:35.404
947.349,10:47:35.406
946.789,10:47:35.408
945.771,10:47:35.410
944.352,10:47:35.412
942.522,10:47:35.414
940.213,10:47:35.416
937.351,10:47:35.417
933.844,10:47:35.419
929.64,10:47:35.421
924.739,10:47:35.423
919.145,10:47:35.425
912.873,10:47:35.427
905.95,10:47:35.429
898.407,10:47:35.431
890.305,10:47:35.433
881.733,10:47:35.435
872.765,10:47:35.437
863.463,10:47:35.439
853.887,10:47:35.441
844.085,10:47:35.443
834.123,10:47:35.445
824.081,10:47:35.447
814.035,10:47:35.449
804.059,10:47:35.451
794.218,10:47:35.453
784.568,10:47:35.455
775.161,10:47:35.457
766.048,10:47:35.458
757.268,10:47:35.460
748.851,10:47:35.462
740.818,10:47:35.464
733.182,10:47:35.466
725.954,10:47:35.468
719.152,10:47:35.470
712.788,10:47:35.472
706.875,10:47:35.474
701.421,10:47:35.476
696.43,10:47:35.478
691.906,10:47:35.480
687.851,10:47:35.482
684.261,10:47:35.484
681.128,10:47:35.486
678.437,10:47:35.488
676.172,10:47:35.490
674.309,10:47:35.492
672.828,10:47:35.494
671.7,10:47:35.496
670.9,10:47:35.498
670.398,10:47:35.500
670.164,10:47:35.501
670.169,10:47:35.503
670.383,10:47:35.505
670.774,10:47:35.507
671.309,10:47:35.509
671.957,10:47:35.511
672.684,10:47:35.513
673.458,10:47:35.515
674.245,10:47:35.517
675.014,10:47:35.519
675.73,10:47:35.521
676.365,10:47:35.523
676.892,10:47:35.525
677.286,10:47:35.527
677.52,10:47:35.529
677.572,10:47:35.531
677.418,10:47:35.533
677.037,10:47:35.535
676.409,10:47:35.537
675.513,10:47:35.539
674.329,10:47:35.541
672.837,10:47:35.542
671.019,10:47:35.544
668.86,10:47:35.546
666.346,10:47:35.548
663.469,10:47:35.550
660.221,10:47:35.552
656.595,10:47:35.554
652.587,10:47:35.556
648.194,10:47:35.558
643.415,10:47:35.560
638.249,10:47:35.562
632.692,10:47:35.564
626.742,10:47:35.566
620.397,10:47:35.568
613.659,10:47:35.570
606.529,10:47:35.572
599.012,10:47:35.574
591.114,10:47:35.576
582.844,10:47:35.578
574.217,10:47:35.580
565.251,10:47:35.582
555.966,10:47:35.583
546.376,10:47:35.585
536.498,10:47:35.587
526.349,10:47:35.589
515.943,10:47:35.591
505.296,10:47:35.593
494.418,10:47:35.595
483.317,10:47:35.597
472.004,10:47:35.599
460.498,10:47:35.601
448.825,10:47:35.603
437.012,10:47:35.605
425.091,10:47:35.607
413.093,10:47:35.609
401.05,10:47:35.611
388.996,10:47:35.613
376.963,10:47:35.615
364.977,10:47:35.617
353.049,10:47:35.619
341.187,10:47:35.621
329.405,10:47:35.623
317.729,10:47:35.625
306.203,10:47:35.626
294.882,10:47:35.628
283.808,10:47:35.630
273.007,10:47:35.632
262.497,10:47:35.634
252.291,10:47:35.636
242.385,10:47:35.638
232.743,10:47:35.640
223.287,10:47:35.642
213.897,10:47:35.644
204.469,10:47:35.646
194.942,10:47:35.648
185.308,10:47:35.650
175.589,10:47:35.652
165.79,10:47:35.654
155.925,10:47:35.656
146.002,10:47:35.658
136.034,10:47:35.660
126.083,10:47:35.662
116.202,10:47:35.664
106.428,10:47:35.666
96.802,10:47:35.667
87.392,10:47:35.669
78.345,10:47:35.671
69.923,10:47:35.673
62.472,10:47:35.675
56.307,10:47:35.677
51.645,10:47:35.679
48.566,10:47:35.681
47.115,10:47:35.683
47.371,10:47:35.685
49.344,10:47:35.687
52.993,10:47:35.689
58.128,10:47:35.691
64.336,10:47:35.693
71.249,10:47:35.695
78.623,10:47:35.697
86.158,10:47:35.699
93.509,10:47:35.701
100.196,10:47:35.703
105.424,10:47:35.705
108.538,10:47:35.707
109.378,10:47:35.708
108.056,10:47:35.710
104.704,10:47:35.712
99.438,10:47:35.714
92.137,10:47:35.716
82.269,10:47:35.718
69.683,10:47:35.720
54.581,10:47:35.722
36.177,10:47:35.724
14.639,10:47:35.726
-8.131,10:47:35.728
-33.315,10:47:35.730
-62.348,10:47:35.732
-97.959,10:47:35.734
-147.622,10:47:35.736
-208.666,10:47:35.738
-270.178,10:47:35.740
-319.883,10:47:35.742
-340.961,10:47:35.744
-331.833,10:47:35.746
-305.609,10:47:35.748
-274.2,10:47:35.750
-250.847,10:47:35.751
-236.554,10:47:35.753
-221.704,10:47:35.755
-204.662,10:47:35.757
-184.508,10:47:35.759
-166.111,10:47:35.761
-158.207,10:47:35.763
-155.738,10:47:35.765
-153.963,10:47:35.767
-147.344,10:47:35.769
-128.071,10:47:35.771
-102.629,10:47:35.773
-76.62,10:47:35.775
-53.562,10:47:35.777
-39.881,10:47:35.779
-32.1,10:47:35.781
-26.543,10:47:35.783
-22.533,10:47:35.785
-17.265,10:47:35.787
-11.878,10:47:35.789
-8.088,10:47:35.791
-5.336,10:47:35.792
-3.599,10:47:35.794
-2.437,10:47:35.796
-1.143,10:47:35.798
0.236,10:47:35.800
1.56,10:47:35.802
2.927,10:47:35.804
4.401,10:47:35.806
6,10:47:35.808
7.775,10:47:35.810
9.795,10:47:35.812
12.077,10:47:35.814
14.652,10:47:35.816
17.543,10:47:35.818
20.641,10:47:35.820
23.823,10:47:35.822
26.982,10:47:35.824
29.985,10:47:35.826
32.755,10:47:35.828
35.262,10:47:35.830
37.474,10:47:35.832
39.389,10:47:35.833
41.022,10:47:35.835
42.391,10:47:35.837
43.532,10:47:35.839
44.493,10:47:35.841
45.298,10:47:35.843
45.961,10:47:35.845
46.498,10:47:35.847
46.921,10:47:35.849
47.266,10:47:35.851
47.578,10:47:35.853
47.9,10:47:35.855
48.276,10:47:35.857
48.745,10:47:35.859
49.337,10:47:35.861
50.083,10:47:35.863
51.009,10:47:35.865
52.129,10:47:35.867
53.454,10:47:35.869
54.99,10:47:35.871
56.734,10:47:35.873
58.696,10:47:35.875
60.883,10:47:35.876
63.308,10:47:35.878
65.982,10:47:35.880
68.914,10:47:35.882
72.099,10:47:35.884
75.541,10:47:35.886
79.241,10:47:35.888
83.195,10:47:35.890
87.405,10:47:35.892
91.858,10:47:35.894
96.522,10:47:35.896
101.392,10:47:35.898
106.483,10:47:35.900
111.799,10:47:35.902
117.347,10:47:35.904
123.106,10:47:35.906
129.005,10:47:35.908
135.017,10:47:35.910
141.167,10:47:35.912
147.387,10:47:35.914
153.542,10:47:35.916
159.52,10:47:35.917
165.196,10:47:35.919
170.533,10:47:35.921
175.636,10:47:35.923
180.502,10:47:35.925
184.949,10:47:35.927
189.113,10:47:35.929
193.486,10:47:35.931
198.12,10:47:35.933
202.837,10:47:35.935
207.677,10:47:35.937
212.003,10:47:35.939
216.97,10:47:35.941
225.806,10:47:35.943
237.533,10:47:35.945
249.237,10:47:35.947
255.743,10:47:35.949
247.703,10:47:35.951
226.333,10:47:35.953
200.808,10:47:35.955
180.503,10:47:35.957
178.711,10:47:35.958
195.358,10:47:35.960
218.048,10:47:35.962
237.267,10:47:35.964
242.461,10:47:35.966
232.515,10:47:35.968
216.755,10:47:35.970
200.681,10:47:35.972
188.322,10:47:35.974
180.598,10:47:35.976
173.702,10:47:35.978
166.095,10:47:35.980
157.893,10:47:35.982
149.018,10:47:35.984
140.096,10:47:35.986
131.261,10:47:35.988
122.04,10:47:35.990
112.34,10:47:35.992
102.284,10:47:35.994
91.899,10:47:35.996
81.207,10:47:35.998
70.274,10:47:36.000
59.165,10:47:36.001
47.974,10:47:36.003
36.835,10:47:36.005
25.815,10:47:36.007
14.915,10:47:36.009
4.168,10:47:36.011
-6.382,10:47:36.013
-16.696,10:47:36.015
-26.732,10:47:36.017
-36.457,10:47:36.019
-45.85,10:47:36.021
-54.881,10:47:36.023
-63.516,10:47:36.025
-71.728,10:47:36.027
-79.493,10:47:36.029
-86.792,10:47:36.031
-93.609,10:47:36.033
-99.933,10:47:36.035
-105.754,10:47:36.037
-111.066,10:47:36.039
-115.869,10:47:36.041
-120.164,10:47:36.042
-123.955,10:47:36.044
-127.253,10:47:36.046
-130.068,10:47:36.048
-132.416,10:47:36.050
-134.315,10:47:36.052
-135.786,10:47:36.054
-136.853,10:47:36.056
-137.54,10:47:36.058
-137.874,10:47:36.060
-137.885,10:47:36.062
-137.603,10:47:36.064
-137.057,10:47:36.066
-136.278,10:47:36.068
-135.298,10:47:36.070
-134.149,10:47:36.072
-132.861,10:47:36.074
-131.466,10:47:36.076
-129.994,10:47:36.078
-128.474,10:47:36.080
-126.937,10:47:36.082
-125.41,10:47:36.083
-123.919,10:47:36.085
-122.491,10:47:36.087
-121.148,10:47:36.089
-119.913,10:47:36.091
-118.805,10:47:36.093
-117.842,10:47:36.095
-117.04,10:47:36.097
-116.411,10:47:36.099
-115.968,10:47:36.101
-115.717,10:47:36.103
-115.667,10:47:36.105
-115.822,10:47:36.107
-116.182,10:47:36.109
-116.747,10:47:36.111
-117.515,10:47:36.113
-118.48,10:47:36.115
-119.636,10:47:36.117
-120.974,10:47:36.119
-122.484,10:47:36.121
-124.156,10:47:36.123
-125.977,10:47:36.125
-127.934,10:47:36.126
-130.015,10:47:36.128
-132.205,10:47:36.130
-134.49,10:47:36.132
-136.858,10:47:36.134
-139.293,10:47:36.136
-141.782,10:47:36.138
-144.312,10:47:36.140
-146.869,10:47:36.142
-149.442,10:47:36.144
-152.018,10:47:36.146
-154.587,10:47:36.148
-157.139,10:47:36.150
-159.664,10:47:36.152
-162.155,10:47:36.154
-164.605,10:47:36.156
-167.007,10:47:36.158
-169.356,10:47:36.160
-171.649,10:47:36.162
-173.882,10:47:36.164
-176.054,10:47:36.166
-178.164,10:47:36.167
-180.212,10:47:36.169
-182.2,10:47:36.171
-184.13,10:47:36.173
-186.007,10:47:36.175
-187.833,10:47:36.177
-189.616,10:47:36.179
-191.359,10:47:36.181
-193.069,10:47:36.183
-194.753,10:47:36.185
-196.417,10:47:36.187
-198.068,10:47:36.189
-199.711,10:47:36.191
-201.354,10:47:36.193
-203.002,10:47:36.195
-204.661,10:47:36.197
-206.338,10:47:36.199
-208.035,10:47:36.201
-209.758,10:47:36.203
-211.51,10:47:36.205
-213.293,10:47:36.207
-215.108,10:47:36.208
-216.957,10:47:36.210
-218.84,10:47:36.212
-220.754,10:47:36.214
-222.699,10:47:36.216
-224.673,10:47:36.218
-226.672,10:47:36.220
-228.692,10:47:36.222
-230.731,10:47:36.224
-232.782,10:47:36.226
-234.841,10:47:36.228
-236.901,10:47:36.230
-238.957,10:47:36.232
-241.001,10:47:36.234
-243.026,10:47:36.236
-245.026,10:47:36.238
-246.992,10:47:36.240
-248.919,10:47:36.242
-250.798,10:47:36.244
-252.624,10:47:36.246
-254.389,10:47:36.248
-256.088,10:47:36.250
-257.714,10:47:36.251
-259.262,10:47:36.253
-260.728,10:47:36.255
-262.105,10:47:36.257
-263.392,10:47:36.259
-264.583,10:47:36.261
-265.677,10:47:36.263
-266.672,10:47:36.265
-267.568,10:47:36.267
-268.365,10:47:36.269
-269.065,10:47:36.271
-269.671,10:47:36.273
-270.185,10:47:36.275
-270.611,10:47:36.277
-270.954,10:47:36.279
-271.22,10:47:36.281
-271.415,10:47:36.283
-271.544,10:47:36.285
-271.616,10:47:36.287
-271.637,10:47:36.289
-271.616,10:47:36.291
-271.561,10:47:36.292
-271.48,10:47:36.294
-271.383,10:47:36.296
-271.277,10:47:36.298
-271.171,10:47:36.300
-271.072,10:47:36.302
-270.988,10:47:36.304
-270.924,10:47:36.306
-270.886,10:47:36.308
-270.88,10:47:36.310
-270.909,10:47:36.312
-270.978,10:47:36.314
-271.091,10:47:36.316
-271.25,10:47:36.318
-271.457,10:47:36.320
-271.713,10:47:36.322
-272.018,10:47:36.324
-272.371,10:47:36.326
-272.769,10:47:36.328
-273.209,10:47:36.330
-273.685,10:47:36.332
-274.192,10:47:36.333
-274.722,10:47:36.335
-275.267,10:47:36.337
-275.818,10:47:36.339
-276.366,10:47:36.341
-276.899,10:47:36.343
-277.406,10:47:36.345
-277.874,10:47:36.347
-278.29,10:47:36.349
-278.639,10:47:36.351
-278.908,10:47:36.353
-279.079,10:47:36.355
-279.137,10:47:36.357
-279.067,10:47:36.359
-278.852,10:47:36.361
-278.48,10:47:36.363
-277.936,10:47:36.365
-277.206,10:47:36.367
-276.28,10:47:36.369
-275.146,10:47:36.371
-273.795,10:47:36.373
-272.217,10:47:36.375
-270.405,10:47:36.376
-268.35,10:47:36.378
-266.047,10:47:36.380
-263.49,10:47:36.382
-260.678,10:47:36.384
-257.608,10:47:36.386
-254.283,10:47:36.388
-250.704,10:47:36.390
-246.877,10:47:36.392
-242.81,10:47:36.394
-238.514,10:47:36.396
-234,10:47:36.398
-229.28,10:47:36.400
-224.367,10:47:36.402
-219.279,10:47:36.404
-214.033,10:47:36.406
-208.648,10:47:36.408
-203.147,10:47:36.410
-197.551,10:47:36.412
-191.885,10:47:36.414
-186.177,10:47:36.416
-180.457,10:47:36.417
-174.754,10:47:36.419
-169.099,10:47:36.421
-163.523,10:47:36.423
-158.055,10:47:36.425
-152.725,10:47:36.427
-147.561,10:47:36.429
-142.59,10:47:36.431
-137.838,10:47:36.433
-133.329,10:47:36.435
-129.088,10:47:36.437
-125.137,10:47:36.439
-121.502,10:47:36.441
-118.203,10:47:36.443
-115.258,10:47:36.445
-112.685,10:47:36.447
-110.498,10:47:36.449
-108.708,10:47:36.451
-107.322,10:47:36.453
-106.342,10:47:36.455
-105.763,10:47:36.457
-105.582,10:47:36.458
-105.791,10:47:36.460
-106.383,10:47:36.462
-107.349,10:47:36.464
-108.676,10:47:36.466
-110.351,10:47:36.468
-112.36,10:47:36.470
-114.694,10:47:36.472
-117.337,10:47:36.474
-120.269,10:47:36.476
-123.461,10:47:36.478
-126.875,10:47:36.480
-130.475,10:47:36.482
-134.223,10:47:36.484
-138.075,10:47:36.486
-141.988,10:47:36.488
-145.913,10:47:36.490
-149.802,10:47:36.492
-153.624,10:47:36.494
-157.359,10:47:36.496
-160.981,10:47:36.498
-164.463,10:47:36.500
-167.766,10:47:36.501
-170.835,10:47:36.503
-173.633,10:47:36.505
-176.145,10:47:36.507
-178.354,10:47:36.509
-180.257,10:47:36.511
-181.865,10:47:36.513
-183.19,10:47:36.515
-184.292,10:47:36.517
-185.275,10:47:36.519
-186.232,10:47:36.521
-187.261,10:47:36.523
-188.417,10:47:36.525
-189.695,10:47:36.527
-191.113,10:47:36.529
-192.687,10:47:36.531
-194.416,10:47:36.533
-196.326,10:47:36.535
-198.392,10:47:36.537
-200.533,10:47:36.539
-202.718,10:47:36.541
-204.917,10:47:36.542
-207.06,10:47:36.544
-209.085,10:47:36.546
-210.829,10:47:36.548
-212.012,10:47:36.550
-212.393,10:47:36.552
-211.743,10:47:36.554
-209.878,10:47:36.556
-206.763,10:47:36.558
-202.375,10:47:36.560
-196.709,10:47:36.562
-189.872,10:47:36.564
-181.985,10:47:36.566
-173.258,10:47:36.568
-164.046,10:47:36.570
-154.623,10:47:36.572
-145.223,10:47:36.574
-136.162,10:47:36.576
-127.745,10:47:36.578
-120.405,10:47:36.580
-114.778,10:47:36.582
-111.456,10:47:36.583
-110.99,10:47:36.585
-113.898,10:47:36.587
-120.473,10:47:36.589
-130.912,10:47:36.591
-145.369,10:47:36.593
-163.795,10:47:36.595
-186.055,10:47:36.597
-211.874,10:47:36.599
-240.734,10:47:36.601
-272.157,10:47:36.603
-305.723,10:47:36.605
-340.91,10:47:36.607
-377.189,10:47:36.609
-413.874,10:47:36.611
-449.993,10:47:36.613
-484.572,10:47:36.615
-516.718,10:47:36.617
-545.556,10:47:36.619
-570.454,10:47:36.621
-590.917,10:47:36.623
-606.487,10:47:36.625
-616.901,10:47:36.626
-622.019,10:47:36.628
-621.861,10:47:36.630
-616.717,10:47:36.632
-606.88,10:47:36.634
-592.586,10:47:36.636
-574.136,10:47:36.638
-551.86,10:47:36.640
-526.286,10:47:36.642
-498.276,10:47:36.644
-468.73,10:47:36.646
-438.445,10:47:36.648
-408.182,10:47:36.650
-378.509,10:47:36.652
-349.903,10:47:36.654
-322.857,10:47:36.656
-297.743,10:47:36.658
-274.829,10:47:36.660
-254.252,10:47:36.662
-235.976,10:47:36.664
-219.977,10:47:36.666
-206.315,10:47:36.667
-195.043,10:47:36.669
-186.194,10:47:36.671
-179.602,10:47:36.673
-174.811,10:47:36.675
-171.35,10:47:36.677
-168.852,10:47:36.679
-167.011,10:47:36.681
-165.645,10:47:36.683
-164.588,10:47:36.685
-163.627,10:47:36.687
-162.621,10:47:36.689
-161.519,10:47:36.691
-160.333,10:47:36.693
-159.144,10:47:36.695
-157.967,10:47:36.697
-156.73,10:47:36.699
-155.339,10:47:36.701
-153.704,10:47:36.703
-151.869,10:47:36.705
-150.051,10:47:36.707
-148.437,10:47:36.708
-147.143,10:47:36.710
-146.235,10:47:36.712
-145.712,10:47:36.714
-145.589,10:47:36.716
-145.914,10:47:36.718
-146.67,10:47:36.720
-147.762,10:47:36.722
-149.07,10:47:36.724
-150.463,10:47:36.726
-151.859,10:47:36.728
-153.238,10:47:36.730
-154.58,10:47:36.732
-155.856,10:47:36.734
-156.981,10:47:36.736
-157.807,10:47:36.738
-158.208,10:47:36.740
-158.089,10:47:36.742
-157.361,10:47:36.744
-155.955,10:47:36.746
-153.79,10:47:36.748
-150.769,10:47:36.750
-146.842,10:47:36.751
-142.004,10:47:36.753
-136.256,10:47:36.755
-129.599,10:47:36.757
-122.023,10:47:36.759
-113.497,10:47:36.761
-104.005,10:47:36.763
-93.547,10:47:36.765
-82.133,10:47:36.767
-69.789,10:47:36.769
-56.541,10:47:36.771
-42.419,10:47:36.773
-27.464,10:47:36.775
-11.73,10:47:36.777
4.72,10:47:36.779
21.817,10:47:36.781
39.493,10:47:36.783
57.691,10:47:36.785
76.342,10:47:36.787
95.372,10:47:36.789
114.705,10:47:36.791
134.256,10:47:36.792
153.939,10:47:36.794
173.673,10:47:36.796
193.369,10:47:36.798
212.936,10:47:36.800
232.282,10:47:36.802
251.318,10:47:36.804
269.957,10:47:36.806
288.118,10:47:36.808
305.719,10:47:36.810
322.683,10:47:36.812
338.937,10:47:36.814
354.413,10:47:36.816
369.047,10:47:36.818
382.782,10:47:36.820
395.567,10:47:36.822
407.354,10:47:36.824
418.105,10:47:36.826
427.788,10:47:36.828
436.377,10:47:36.830
443.854,10:47:36.832
450.21,10:47:36.833
455.44,10:47:36.835
459.549,10:47:36.837
462.55,10:47:36.839
464.464,10:47:36.841
465.316,10:47:36.843
465.141,10:47:36.845
463.976,10:47:36.847
461.868,10:47:36.849
458.868,10:47:36.851
455.03,10:47:36.853
450.416,10:47:36.855
445.087,10:47:36.857
439.113,10:47:36.859
432.563,10:47:36.861
425.511,10:47:36.863
418.033,10:47:36.865
410.207,10:47:36.867
402.109,10:47:36.869
393.815,10:47:36.871
385.403,10:47:36.873
376.947,10:47:36.875
368.52,10:47:36.876
360.191,10:47:36.878
352.028,10:47:36.880
344.094,10:47:36.882
336.446,10:47:36.884
329.14,10:47:36.886
322.226,10:47:36.888
315.748,10:47:36.890
309.745,10:47:36.892
304.25,10:47:36.894
299.292,10:47:36.896
294.892,10:47:36.898
291.066,10:47:36.900
287.825,10:47:36.902
285.173,10:47:36.904
283.109,10:47:36.906
281.627,10:47:36.908
280.717,10:47:36.910
280.361,10:47:36.912
280.54,10:47:36.914
281.23,10:47:36.916
282.402,10:47:36.917
284.024,10:47:36.919
286.062,10:47:36.921
288.479,10:47:36.923
291.235,10:47:36.925
294.287,10:47:36.927
297.594,10:47:36.929
301.111,10:47:36.931
304.794,10:47:36.933
308.598,10:47:36.935
312.479,10:47:36.937
316.394,10:47:36.939
320.302,10:47:36.941
324.162,10:47:36.943
327.936,10:47:36.945
331.59,10:47:36.947
335.089,10:47:36.949
338.405,10:47:36.951
341.511,10:47:36.953
344.382,10:47:36.955
347,10:47:36.957
349.347,10:47:36.958
351.41,10:47:36.960
353.18,10:47:36.962
354.648,10:47:36.964
355.812,10:47:36.966
356.672,10:47:36.968
357.228,10:47:36.970
357.485,10:47:36.972
357.452,10:47:36.974
357.135,10:47:36.976
356.547,10:47:36.978
355.7,10:47:36.980
354.607,10:47:36.982
353.284,10:47:36.984
351.746,10:47:36.986
350.01,10:47:36.988
348.093,10:47:36.990
346.012,10:47:36.992
343.785,10:47:36.994
341.429,10:47:36.996
338.96,10:47:36.998
336.396,10:47:37.000
333.752,10:47:37.001
331.042,10:47:37.003
328.28,10:47:37.005
325.478,10:47:37.007
322.646,10:47:37.009
319.795,10:47:37.011
316.93,10:47:37.013
314.059,10:47:37.015
311.186,10:47:37.017
308.313,10:47:37.019
305.442,10:47:37.021
302.573,10:47:37.023
299.705,10:47:37.025
296.836,10:47:37.027
293.963,10:47:37.029
291.083,10:47:37.031
288.192,10:47:37.033
285.285,10:47:37.035
282.358,10:47:37.037
279.407,10:47:37.039
276.428,10:47:37.041
273.417,10:47:37.042
270.372,10:47:37.044
267.289,10:47:37.046
264.169,10:47:37.048
261.011,10:47:37.050
257.815,10:47:37.052
254.583,10:47:37.054
251.318,10:47:37.056
248.022,10:47:37.058
244.7,10:47:37.060
241.359,10:47:37.062
238.003,10:47:37.064
234.642,10:47:37.066
231.283,10:47:37.068
227.936,10:47:37.070
224.613,10:47:37.072
221.325,10:47:37.074
218.084,10:47:37.076
214.905,10:47:37.078
211.802,10:47:37.080
208.788,10:47:37.082
205.879,10:47:37.083
203.09,10:47:37.085
200.436,10:47:37.087
197.932,10:47:37.089
195.591,10:47:37.091
193.428,10:47:37.093
191.456,10:47:37.095
189.687,10:47:37.097
188.133,10:47:37.099
186.802,10:47:37.101
185.703,10:47:37.103
184.844,10:47:37.105
184.228,10:47:37.107
183.861,10:47:37.109
183.742,10:47:37.111
183.872,10:47:37.113
184.249,10:47:37.115
184.871,10:47:37.117
185.731,10:47:37.119
186.824,10:47:37.121
188.142,10:47:37.123
189.676,10:47:37.125
191.415,10:47:37.126
193.348,10:47:37.128
195.462,10:47:37.130
197.743,10:47:37.132
200.175,10:47:37.134
202.742,10:47:37.136
205.427,10:47:37.138
208.214,10:47:37.140
211.082,10:47:37.142
214.015,10:47:37.144
216.992,10:47:37.146
219.996,10:47:37.148
223.008,10:47:37.150
226.008,10:47:37.152
228.978,10:47:37.154
231.901,10:47:37.156
234.759,10:47:37.158
237.535,10:47:37.160
240.213,10:47:37.162
242.779,10:47:37.164
245.219,10:47:37.166
247.52,10:47:37.167
249.671,10:47:37.169
251.663,10:47:37.171
253.486,10:47:37.173
255.135,10:47:37.175
256.602,10:47:37.177
257.883,10:47:37.179
258.975,10:47:37.181
259.873,10:47:37.183
260.576,10:47:37.185
261.084,10:47:37.187
261.395,10:47:37.189
261.512,10:47:37.191
261.435,10:47:37.193
261.168,10:47:37.195
260.713,10:47:37.197
260.074,10:47:37.199
259.257,10:47:37.201
258.266,10:47:37.203
257.106,10:47:37.205
255.783,10:47:37.207
254.304,10:47:37.208
252.675,10:47:37.210
250.902,10:47:37.212
248.993,10:47:37.214
246.954,10:47:37.216
244.793,10:47:37.218
242.517,10:47:37.220
240.133,10:47:37.222
237.648,10:47:37.224
235.069,10:47:37.226
232.403,10:47:37.228
229.655,10:47:37.230
226.831,10:47:37.232
223.937,10:47:37.234
220.978,10:47:37.236
217.96,10:47:37.238
214.886,10:47:37.240
211.762,10:47:37.242
208.593,10:47:37.244
205.382,10:47:37.246
202.136,10:47:37.248
198.859,10:47:37.250
195.555,10:47:37.251
192.23,10:47:37.253
188.887,10:47:37.255
185.532,10:47:37.257
182.169,10:47:37.259
178.803,10:47:37.261
175.439,10:47:37.263
172.083,10:47:37.265
168.738,10:47:37.267
165.409,10:47:37.269
162.103,10:47:37.271
158.823,10:47:37.273
155.574,10:47:37.275
152.36,10:47:37.277
149.186,10:47:37.279
146.056,10:47:37.281
142.972,10:47:37.283
139.94,10:47:37.285
136.962,10:47:37.287
134.042,10:47:37.289
131.183,10:47:37.291
128.388,10:47:37.292
125.659,10:47:37.294
122.999,10:47:37.296
120.411,10:47:37.298
117.896,10:47:37.300
115.454,10:47:37.302
113.088,10:47:37.304
110.796,10:47:37.306
108.577,10:47:37.308
106.432,10:47:37.310
104.356,10:47:37.312
102.348,10:47:37.314
100.404,10:47:37.316
98.519,10:47:37.318
96.688,10:47:37.320
94.904,10:47:37.322
93.163,10:47:37.324
91.455,10:47:37.326
89.775,10:47:37.328
88.114,10:47:37.330
86.463,10:47:37.332
84.816,10:47:37.333
83.162,10:47:37.335
81.495,10:47:37.337
79.806,10:47:37.339
78.086,10:47:37.341
76.326,10:47:37.343
74.52,10:47:37.345
72.657,10:47:37.347
70.731,10:47:37.349
68.733,10:47:37.351
66.656,10:47:37.353
64.492,10:47:37.355
62.233,10:47:37.357
59.875,10:47:37.359
57.409,10:47:37.361
54.83,10:47:37.363
52.132,10:47:37.365
49.309,10:47:37.367
46.358,10:47:37.369
43.274,10:47:37.371
40.057,10:47:37.373
36.706,10:47:37.375
33.221,10:47:37.376
29.607,10:47:37.378
25.868,10:47:37.380
22.01,10:47:37.382
18.04,10:47:37.384
13.966,10:47:37.386
9.795,10:47:37.388
5.537,10:47:37.390
1.199,10:47:37.392
-3.208,10:47:37.394
-7.673,10:47:37.396
-12.184,10:47:37.398
-16.731,10:47:37.400
-21.302,10:47:37.402
-25.884,10:47:37.404
-30.465,10:47:37.406
-35.031,10:47:37.408
-39.569,10:47:37.410
-44.068,10:47:37.412
-48.517,10:47:37.414
-52.904,10:47:37.416
-57.217,10:47:37.417
-61.444,10:47:37.419
-65.57,10:47:37.421
-69.583,10:47:37.423
-73.473,10:47:37.425
-77.232,10:47:37.427
-80.857,10:47:37.429
-84.341,10:47:37.431
-87.678,10:47:37.433
-90.864,10:47:37.435
-93.899,10:47:37.437
-96.785,10:47:37.439
-99.527,10:47:37.441
-102.129,10:47:37.443
-104.589,10:47:37.445
-106.914,10:47:37.447
-109.111,10:47:37.449
-111.191,10:47:37.451
-113.173,10:47:37.453
-115.061,10:47:37.455
-116.845,10:47:37.457
-118.51,10:47:37.458
-120.032,10:47:37.460
-121.399,10:47:37.462
-122.613,10:47:37.464
-123.678,10:47:37.466
-124.608,10:47:37.468
-125.426,10:47:37.470
-126.154,10:47:37.472
-126.834,10:47:37.474
-127.522,10:47:37.476
-128.258,10:47:37.478
-129.078,10:47:37.480
-130,10:47:37.482
-131.012,10:47:37.484
-132.158,10:47:37.486
-133.524,10:47:37.488
-135.233,10:47:37.490
-137.46,10:47:37.492
-140.302,10:47:37.494
-143.777,10:47:37.496
-147.85,10:47:37.498
-152.407,10:47:37.500
-157.349,10:47:37.501
-162.654,10:47:37.503
-168.176,10:47:37.505
-173.65,10:47:37.507
-179.013,10:47:37.509
-184.303,10:47:37.511
-189.89,10:47:37.513
-196.565,10:47:37.515
-204.574,10:47:37.517
-213.573,10:47:37.519
-223.174,10:47:37.521
-232.876,10:47:37.523
-242.101,10:47:37.525
-250.354,10:47:37.527
-256.356,10:47:37.529
-257.995,10:47:37.531
-254.307,10:47:37.533
-245.582,10:47:37.535
-232.828,10:47:37.537
-217.715,10:47:37.539
-201.709,10:47:37.541
-186.169,10:47:37.542
-173.565,10:47:37.544
-167.493,10:47:37.546
-170.717,10:47:37.548
-184.447,10:47:37.550
-208.435,10:47:37.552
-241.443,10:47:37.554
-282.306,10:47:37.556
-329.412,10:47:37.558
-380.028,10:47:37.560
-430.026,10:47:37.562
-474.786,10:47:37.564
-511.017,10:47:37.566
-536.843,10:47:37.568
-550.895,10:47:37.570
-552.262,10:47:37.572
-540.943,10:47:37.574
-517.735,10:47:37.576
-485.003,10:47:37.578
-446.501,10:47:37.580
-404.988,10:47:37.582
-362.533,10:47:37.583
-321.414,10:47:37.585
-283.178,10:47:37.587
-248.779,10:47:37.589
-218.85,10:47:37.591
-192.72,10:47:37.593
-168.773,10:47:37.595
-146.239,10:47:37.597
-124.686,10:47:37.599
-103.516,10:47:37.601
-82.769,10:47:37.603
-62.629,10:47:37.605
-43.324,10:47:37.607
-25.837,10:47:37.609
-11.396,10:47:37.611
-0.621,10:47:37.613
6.23,10:47:37.615
9.132,10:47:37.617
8.452,10:47:37.619
4.574,10:47:37.621
-2.168,10:47:37.623
-11.176,10:47:37.625
-21.728,10:47:37.626
-33.271,10:47:37.628
-45.404,10:47:37.630
-57.905,10:47:37.632
-70.674,10:47:37.634
-83.539,10:47:37.636
-96.198,10:47:37.638
-108.309,10:47:37.640
-119.605,10:47:37.642
-129.93,10:47:37.644
-139.228,10:47:37.646
-147.491,10:47:37.648
-154.725,10:47:37.650
-161.019,10:47:37.652
-166.522,10:47:37.654
-171.471,10:47:37.656
-176.162,10:47:37.658
-180.793,10:47:37.660
-185.457,10:47:37.662
-190.186,10:47:37.664
-194.97,10:47:37.666
-199.815,10:47:37.667
-204.779,10:47:37.669
-209.924,10:47:37.671
-215.261,10:47:37.673
-220.783,10:47:37.675
-226.47,10:47:37.677
-232.297,10:47:37.679
-238.25,10:47:37.681
-244.28,10:47:37.683
-250.286,10:47:37.685
-256.125,10:47:37.687
-261.64,10:47:37.689
-266.719,10:47:37.691
-271.302,10:47:37.693
-275.359,10:47:37.695
-278.872,10:47:37.697
-281.831,10:47:37.699
-284.226,10:47:37.701
-286.064,10:47:37.703
-287.382,10:47:37.705
-288.205,10:47:37.707
-288.553,10:47:37.708
-288.44,10:47:37.710
-287.874,10:47:37.712
-286.88,10:47:37.714
-285.503,10:47:37.716
-283.799,10:47:37.718
-281.827,10:47:37.720
-279.644,10:47:37.722
-277.298,10:47:37.724
-274.837,10:47:37.726
-272.309,10:47:37.728
-269.758,10:47:37.730
-267.223,10:47:37.732
-264.731,10:47:37.734
-262.308,10:47:37.736
-259.98,10:47:37.738
-257.78,10:47:37.740
-255.741,10:47:37.742
-253.894,10:47:37.744
-252.27,10:47:37.746
-250.896,10:47:37.748
-249.796,10:47:37.750
-248.997,10:47:37.751
-248.516,10:47:37.753
-248.369,10:47:37.755
-248.564,10:47:37.757
-249.107,10:47:37.759
-250.001,10:47:37.761
-251.246,10:47:37.763
-252.84,10:47:37.765
-254.778,10:47:37.767
-257.051,10:47:37.769
-259.651,10:47:37.771
-262.563,10:47:37.773
-265.774,10:47:37.775
-269.265,10:47:37.777
-273.013,10:47:37.779
-276.996,10:47:37.781
-281.186,10:47:37.783
-285.555,10:47:37.785
-290.073,10:47:37.787
-294.709,10:47:37.789
-299.433,10:47:37.791
-304.213,10:47:37.792
-309.018,10:47:37.794
-313.82,10:47:37.796
-318.589,10:47:37.798
-323.299,10:47:37.800
-327.919,10:47:37.802
-332.425,10:47:37.804
-336.79,10:47:37.806
-340.99,10:47:37.808
-345.003,10:47:37.810
-348.809,10:47:37.812
-352.389,10:47:37.814
-355.73,10:47:37.816
-358.818,10:47:37.818
-361.646,10:47:37.820
-364.208,10:47:37.822
-366.498,10:47:37.824
-368.517,10:47:37.826
-370.264,10:47:37.828
-371.743,10:47:37.830
-372.958,10:47:37.832
-373.914,10:47:37.833
-374.621,10:47:37.835
-375.096,10:47:37.837
-375.358,10:47:37.839
-375.43,10:47:37.841
-375.334,10:47:37.843
-375.087,10:47:37.845
-374.705,10:47:37.847
-374.221,10:47:37.849
-373.645,10:47:37.851
-372.969,10:47:37.853
-372.201,10:47:37.855
-371.333,10:47:37.857
-370.367,10:47:37.859
-369.378,10:47:37.861
-368.434,10:47:37.863
-367.566,10:47:37.865
-366.89,10:47:37.867
-366.548,10:47:37.869
-366.594,10:47:37.871
-367.111,10:47:37.873
-368.142,10:47:37.875
-369.508,10:47:37.876
-371.003,10:47:37.878
-372.528,10:47:37.880
-373.713,10:47:37.882
-373.964,10:47:37.884
-373.315,10:47:37.886
-372.072,10:47:37.888
-370.163,10:47:37.890
-368.461,10:47:37.892
-366.715,10:47:37.894
-362.249,10:47:37.896
-355.972,10:47:37.898
-350.763,10:47:37.900
-350.765,10:47:37.902
-366.631,10:47:37.904
-401.071,10:47:37.906
-444.738,10:47:37.908
-485.007,10:47:37.910
-498.717,10:47:37.912
-471.508,10:47:37.914
-412.85,10:47:37.916
-339.437,10:47:37.917
-278.638,10:47:37.919
-253.91,10:47:37.921
-263.18,10:47:37.923
-298.579,10:47:37.925
-349.621,10:47:37.927
-403.986,10:47:37.929
-464.206,10:47:37.931
-526.378,10:47:37.933
-572.775,10:47:37.935
-585.582,10:47:37.937
-542.64,10:47:37.939
-442.615,10:47:37.941
-312.829,10:47:37.943
-191.361,10:47:37.945
-121.441,10:47:37.947
-122.576,10:47:37.949
-187.204,10:47:37.951
-290.445,10:47:37.953
-395.764,10:47:37.955
-482.602,10:47:37.957
-537.907,10:47:37.958
-554.393,10:47:37.960
-533.607,10:47:37.962
-465.346,10:47:37.964
-351.343,10:47:37.966
-211.65,10:47:37.968
-74.172,10:47:37.970
14.702,10:47:37.972
20.743,10:47:37.974
-58.584,10:47:37.976
-200.961,10:47:37.978
-357.694,10:47:37.980
-475.24,10:47:37.982
-520.733,10:47:37.984
-487.558,10:47:37.986
-390.156,10:47:37.988
-261.452,10:47:37.990
-136.081,10:47:37.992
-34.678,10:47:37.994
24.599,10:47:37.996
37.105,10:47:37.998
10.209,10:47:38.000
-54.073,10:47:38.001
-139.491,10:47:38.003
-226.832,10:47:38.005
-301.712,10:47:38.007
-339.452,10:47:38.009
-331.718,10:47:38.011
-282.869,10:47:38.013
-201.439,10:47:38.015
-115.585,10:47:38.017
-47.005,10:47:38.019
-7.592,10:47:38.021
-7.295,10:47:38.023
-37.37,10:47:38.025
-85.308,10:47:38.027
-141.876,10:47:38.029
-190.837,10:47:38.031
-222.117,10:47:38.033
-233.061,10:47:38.035
-220.734,10:47:38.037
-193.406,10:47:38.039
-165.311,10:47:38.041
-144.512,10:47:38.042
-138.481,10:47:38.044
-146.878,10:47:38.046
-160.843,10:47:38.048
-175.291,10:47:38.050
-186.526,10:47:38.052
-193.34,10:47:38.054
-198.756,10:47:38.056
-203.925,10:47:38.058
-208.654,10:47:38.060
-212.908,10:47:38.062
-216.065,10:47:38.064
-218.211,10:47:38.066
-220.016,10:47:38.068
-221.633,10:47:38.070
-223.269,10:47:38.072
-225.452,10:47:38.074
-228.139,10:47:38.076
-231.094,10:47:38.078
-234.49,10:47:38.080
-237.56,10:47:38.082
-240.716,10:47:38.083
-247.046,10:47:38.085
-256.054,10:47:38.087
-264.724,10:47:38.089
-268.789,10:47:38.091
-258.007,10:47:38.093
-229.707,10:47:38.095
-193.933,10:47:38.097
-162.717,10:47:38.099
-154.014,10:47:38.101
-177.823,10:47:38.103
-220.915,10:47:38.105
-264.784,10:47:38.107
-290.087,10:47:38.109
-282.068,10:47:38.111
-249.671,10:47:38.113
-210.711,10:47:38.115
-178.395,10:47:38.117
-164.19,10:47:38.119
-165.745,10:47:38.121
-172.291,10:47:38.123
-178.547,10:47:38.125
-180.541,10:47:38.126
-177.882,10:47:38.128
-174.474,10:47:38.130
-171.428,10:47:38.132
-168.521,10:47:38.134
-165.982,10:47:38.136
-163.255,10:47:38.138
-160.229,10:47:38.140
-157.445,10:47:38.142
-155.084,10:47:38.144
-153.128,10:47:38.146
-151.693,10:47:38.148
-150.84,10:47:38.150
-150.518,10:47:38.152
-150.699,10:47:38.154
-151.342,10:47:38.156
-152.358,10:47:38.158
-153.724,10:47:38.160
-155.469,10:47:38.162
-157.581,10:47:38.164
-160.038,10:47:38.166
-162.829,10:47:38.167
-165.928,10:47:38.169
-169.314,10:47:38.171
-172.969,10:47:38.173
-176.862,10:47:38.175
-180.949,10:47:38.177
-185.191,10:47:38.179
-189.543,10:47:38.181
-193.961,10:47:38.183
-198.399,10:47:38.185
-202.809,10:47:38.187
-207.142,10:47:38.189
-211.345,10:47:38.191
-215.367,10:47:38.193
-219.156,10:47:38.195
-222.66,10:47:38.197
-225.826,10:47:38.199
-228.602,10:47:38.201
-230.938,10:47:38.203
-232.785,10:47:38.205
-234.093,10:47:38.207
-234.818,10:47:38.208
-234.916,10:47:38.210
-234.348,10:47:38.212
-233.075,10:47:38.214
-231.065,10:47:38.216
-228.287,10:47:38.218
-224.715,10:47:38.220
-220.325,10:47:38.222
-215.099,10:47:38.224
-209.023,10:47:38.226
-202.087,10:47:38.228
-194.286,10:47:38.230
-185.62,10:47:38.232
-176.093,10:47:38.234
-165.715,10:47:38.236
-154.502,10:47:38.238
-142.472,10:47:38.240
-129.65,10:47:38.242
-116.067,10:47:38.244
-101.755,10:47:38.246
-86.753,10:47:38.248
-71.103,10:47:38.250
-54.851,10:47:38.251
-38.046,10:47:38.253
-20.74,10:47:38.255
-2.988,10:47:38.257
15.15,10:47:38.259
33.616,10:47:38.261
52.348,10:47:38.263
71.282,10:47:38.265
90.355,10:47:38.267
109.503,10:47:38.269
128.663,10:47:38.271
147.771,10:47:38.273
166.766,10:47:38.275
185.586,10:47:38.277
204.174,10:47:38.279
222.471,10:47:38.281
240.422,10:47:38.283
257.976,10:47:38.285
275.083,10:47:38.287
291.697,10:47:38.289
307.774,10:47:38.291
323.276,10:47:38.292
338.168,10:47:38.294
352.42,10:47:38.296
366.003,10:47:38.298
378.895,10:47:38.300
391.078,10:47:38.302
402.536,10:47:38.304
413.26,10:47:38.306
423.242,10:47:38.308
432.48,10:47:38.310
440.976,10:47:38.312
448.736,10:47:38.314
455.771,10:47:38.316
462.095,10:47:38.318
467.725,10:47:38.320
472.682,10:47:38.322
476.992,10:47:38.324
480.679,10:47:38.326
483.773,10:47:38.328
486.304,10:47:38.330
488.303,10:47:38.332
489.802,10:47:38.333
490.834,10:47:38.335
491.431,10:47:38.337
491.628,10:47:38.339
491.458,10:47:38.341
490.957,10:47:38.343
490.159,10:47:38.345
489.098,10:47:38.347
487.807,10:47:38.349
486.318,10:47:38.351
484.66,10:47:38.353
482.861,10:47:38.355
480.949,10:47:38.357
478.948,10:47:38.359
476.881,10:47:38.361
474.773,10:47:38.363
472.643,10:47:38.365
470.516,10:47:38.367
468.411,10:47:38.369
466.349,10:47:38.371
464.348,10:47:38.373
462.423,10:47:38.375
460.589,10:47:38.376
458.855,10:47:38.378
457.229,10:47:38.380
455.718,10:47:38.382
454.325,10:47:38.384
453.053,10:47:38.386
451.905,10:47:38.388
450.882,10:47:38.390
449.986,10:47:38.392
449.221,10:47:38.394
448.59,10:47:38.396
448.099,10:47:38.398
447.753,10:47:38.400
447.556,10:47:38.402
447.51,10:47:38.404
447.616,10:47:38.406
447.872,10:47:38.408
448.276,10:47:38.410
448.823,10:47:38.412
449.508,10:47:38.414
450.324,10:47:38.416
451.272,10:47:38.417
452.35,10:47:38.419
453.563,10:47:38.421
454.92,10:47:38.423
456.428,10:47:38.425
458.092,10:47:38.427
459.912,10:47:38.429
461.88,10:47:38.431
463.986,10:47:38.433
466.219,10:47:38.435
468.56,10:47:38.437
470.982,10:47:38.439
473.47,10:47:38.441
476.014,10:47:38.443
478.62,10:47:38.445
481.312,10:47:38.447
484.103,10:47:38.449
486.985,10:47:38.451
489.934,10:47:38.453
492.906,10:47:38.455
495.831,10:47:38.457
498.617,10:47:38.458
501.164,10:47:38.460
503.36,10:47:38.462
505.116,10:47:38.464
506.37,10:47:38.466
507.102,10:47:38.468
507.344,10:47:38.470
507.133,10:47:38.472
506.511,10:47:38.474
505.473,10:47:38.476
503.955,10:47:38.478
501.917,10:47:38.480
499.354,10:47:38.482
496.293,10:47:38.484
492.791,10:47:38.486
488.978,10:47:38.488
485.032,10:47:38.490
481.191,10:47:38.492
477.764,10:47:38.494
474.996,10:47:38.496
473.051,10:47:38.498
471.976,10:47:38.500
471.678,10:47:38.501
471.996,10:47:38.503
472.703,10:47:38.505
473.628,10:47:38.507
474.676,10:47:38.509
475.715,10:47:38.511
476.571,10:47:38.513
477.036,10:47:38.515
476.869,10:47:38.517
475.763,10:47:38.519
473.372,10:47:38.521
469.242,10:47:38.523
462.785,10:47:38.525
453.52,10:47:38.527
441.103,10:47:38.529
425.385,10:47:38.531
406.445,10:47:38.533
384.521,10:47:38.535
359.996,10:47:38.537
333.252,10:47:38.539
304.651,10:47:38.541
274.627,10:47:38.542
243.662,10:47:38.544
212.286,10:47:38.546
181.062,10:47:38.548
150.558,10:47:38.550
121.328,10:47:38.552
94.046,10:47:38.554
69.523,10:47:38.556
48.469,10:47:38.558
31.46,10:47:38.560
18.868,10:47:38.562
10.824,10:47:38.564
7.289,10:47:38.566
8.066,10:47:38.568
12.894,10:47:38.570
21.457,10:47:38.572
33.341,10:47:38.574
48.077,10:47:38.576
65.138,10:47:38.578
83.962,10:47:38.580
104.048,10:47:38.582
124.948,10:47:38.583
146.139,10:47:38.585
167.017,10:47:38.587
187.029,10:47:38.589
205.699,10:47:38.591
222.684,10:47:38.593
237.802,10:47:38.595
250.956,10:47:38.597
262.13,10:47:38.599
271.371,10:47:38.601
278.788,10:47:38.603
284.568,10:47:38.605
288.939,10:47:38.607
292.166,10:47:38.609
294.531,10:47:38.611
296.242,10:47:38.613
297.445,10:47:38.615
298.302,10:47:38.617
298.989,10:47:38.619
299.659,10:47:38.621
300.446,10:47:38.623
301.416,10:47:38.625
302.57,10:47:38.626
303.907,10:47:38.628
305.417,10:47:38.630
307.068,10:47:38.632
308.805,10:47:38.634
310.538,10:47:38.636
312.158,10:47:38.638
313.549,10:47:38.640
314.596,10:47:38.642
315.227,10:47:38.644
315.407,10:47:38.646
315.113,10:47:38.648
314.335,10:47:38.650
313.079,10:47:38.652
311.36,10:47:38.654
309.216,10:47:38.656
306.707,10:47:38.658
303.878,10:47:38.660
300.765,10:47:38.662
297.406,10:47:38.664
293.84,10:47:38.666
290.116,10:47:38.667
286.291,10:47:38.669
282.422,10:47:38.671
278.564,10:47:38.673
274.764,10:47:38.675
271.066,10:47:38.677
267.506,10:47:38.679
264.118,10:47:38.681
260.927,10:47:38.683
257.954,10:47:38.685
255.214,10:47:38.687
252.717,10:47:38.689
250.475,10:47:38.691
248.504,10:47:38.693
246.819,10:47:38.695
245.434,10:47:38.697
244.362,10:47:38.699
243.61,10:47:38.701
243.183,10:47:38.703
243.087,10:47:38.705
243.318,10:47:38.707
243.871,10:47:38.708
244.734,10:47:38.710
245.892,10:47:38.712
247.328,10:47:38.714
249.025,10:47:38.716
250.964,10:47:38.718
253.122,10:47:38.720
255.478,10:47:38.722
258.011,10:47:38.724
260.695,10:47:38.726
263.506,10:47:38.728
266.418,10:47:38.730
269.404,10:47:38.732
272.434,10:47:38.734
275.481,10:47:38.736
278.514,10:47:38.738
281.505,10:47:38.740
284.424,10:47:38.742
287.243,10:47:38.744
289.934,10:47:38.746
292.469,10:47:38.748
294.821,10:47:38.750
296.964,10:47:38.751
298.87,10:47:38.753
300.516,10:47:38.755
301.876,10:47:38.757
302.928,10:47:38.759
303.652,10:47:38.761
304.027,10:47:38.763
304.037,10:47:38.765
303.667,10:47:38.767
302.906,10:47:38.769
301.744,10:47:38.771
300.176,10:47:38.773
298.197,10:47:38.775
295.808,10:47:38.777
293.008,10:47:38.779
289.801,10:47:38.781
286.193,10:47:38.783
282.189,10:47:38.785
277.798,10:47:38.787
273.031,10:47:38.789
267.897,10:47:38.791
262.411,10:47:38.792
256.586,10:47:38.794
250.438,10:47:38.796
243.984,10:47:38.798
237.242,10:47:38.800
230.231,10:47:38.802
222.97,10:47:38.804
215.481,10:47:38.806
207.785,10:47:38.808
199.903,10:47:38.810
191.858,10:47:38.812
183.672,10:47:38.814
175.369,10:47:38.816
166.97,10:47:38.818
158.499,10:47:38.820
149.977,10:47:38.822
141.427,10:47:38.824
132.87,10:47:38.826
124.324,10:47:38.828
115.81,10:47:38.830
107.345,10:47:38.832
98.944,10:47:38.833
90.624,10:47:38.835
82.397,10:47:38.837
74.275,10:47:38.839
66.269,10:47:38.841
58.39,10:47:38.843
50.645,10:47:38.845
43.042,10:47:38.847
35.587,10:47:38.849
28.287,10:47:38.851
21.147,10:47:38.853
14.169,10:47:38.855
7.358,10:47:38.857
0.716,10:47:38.859
-5.755,10:47:38.861
-12.054,10:47:38.863
-18.18,10:47:38.865
-24.134,10:47:38.867
-29.916,10:47:38.869
-35.526,10:47:38.871
-40.968,10:47:38.873
-46.241,10:47:38.875
-51.35,10:47:38.876
-56.296,10:47:38.878
-61.082,10:47:38.880
-65.712,10:47:38.882
-70.19,10:47:38.884
-74.519,10:47:38.886
-78.703,10:47:38.888
-82.745,10:47:38.890
-86.65,10:47:38.892
-90.421,10:47:38.894
-94.06,10:47:38.896
-97.569,10:47:38.898
-100.951,10:47:38.900
-104.208,10:47:38.902
-107.341,10:47:38.904
-110.352,10:47:38.906
-113.241,10:47:38.908
-116.011,10:47:38.910
-118.662,10:47:38.912
-121.196,10:47:38.914
-123.615,10:47:38.916
-125.921,10:47:38.917
-128.116,10:47:38.919
-130.202,10:47:38.921
-132.182,10:47:38.923
-134.059,10:47:38.925
-135.838,10:47:38.927
-137.521,10:47:38.929
-139.113,10:47:38.931
-140.619,10:47:38.933
-142.043,10:47:38.935
-143.391,10:47:38.937
-144.668,10:47:38.939
-145.879,10:47:38.941
-147.028,10:47:38.943
-148.121,10:47:38.945
-149.163,10:47:38.947
-150.156,10:47:38.949
-151.106,10:47:38.951
-152.016,10:47:38.953
-152.89,10:47:38.955
-153.73,10:47:38.957
-154.541,10:47:38.958
-155.326,10:47:38.960
-156.087,10:47:38.962
-156.828,10:47:38.964
-157.551,10:47:38.966
-158.258,10:47:38.968
-158.951,10:47:38.970
-159.631,10:47:38.972
-160.298,10:47:38.974
-160.951,10:47:38.976
-161.591,10:47:38.978
-162.214,10:47:38.980
-162.818,10:47:38.982
-163.4,10:47:38.984
-163.955,10:47:38.986
-164.478,10:47:38.988
-164.962,10:47:38.990
-165.4,10:47:38.992
-165.784,10:47:38.994
-166.104,10:47:38.996
-166.352,10:47:38.998
-166.517,10:47:39.000
-166.588,10:47:39.001
-166.555,10:47:39.003
-166.408,10:47:39.005
-166.135,10:47:39.007
-165.729,10:47:39.009
-165.178,10:47:39.011
-164.475,10:47:39.013
-163.612,10:47:39.015
-162.58,10:47:39.017
-161.374,10:47:39.019
-159.986,10:47:39.021
-158.412,10:47:39.023
-156.647,10:47:39.025
-154.688,10:47:39.027
-152.53,10:47:39.029
-150.172,10:47:39.031
-147.614,10:47:39.033
-144.855,10:47:39.035
-141.898,10:47:39.037
-138.745,10:47:39.039
-135.401,10:47:39.041
-131.871,10:47:39.042
-128.164,10:47:39.044
-124.287,10:47:39.046
-120.251,10:47:39.048
-116.068,10:47:39.050
-111.752,10:47:39.052
-107.319,10:47:39.054
-102.784,10:47:39.056
-98.167,10:47:39.058
-93.486,10:47:39.060
-88.764,10:47:39.062
-84.02,10:47:39.064
-79.279,10:47:39.066
-74.561,10:47:39.068
-69.889,10:47:39.070
-65.287,10:47:39.072
-60.777,10:47:39.074
-56.38,10:47:39.076
-52.117,10:47:39.078
-48.011,10:47:39.080
-44.08,10:47:39.082
-40.344,10:47:39.083
-36.821,10:47:39.085
-33.531,10:47:39.087
-30.488,10:47:39.089
-27.709,10:47:39.091
-25.208,10:47:39.093
-22.997,10:47:39.095
-21.089,10:47:39.097
-19.492,10:47:39.099
-18.215,10:47:39.101
-17.263,10:47:39.103
-16.641,10:47:39.105
-16.349,10:47:39.107
-16.388,10:47:39.109
-16.754,10:47:39.111
-17.443,10:47:39.113
-18.447,10:47:39.115
-19.755,10:47:39.117
-21.355,10:47:39.119
-23.232,10:47:39.121
-25.368,10:47:39.123
-27.743,10:47:39.125
-30.336,10:47:39.126
-33.123,10:47:39.128
-36.079,10:47:39.130
-39.179,10:47:39.132
-42.395,10:47:39.134
-45.698,10:47:39.136
-49.061,10:47:39.138
-52.454,10:47:39.140
-55.848,10:47:39.142
-59.213,10:47:39.144
-62.519,10:47:39.146
-65.737,10:47:39.148
-68.836,10:47:39.150
-71.788,10:47:39.152
-74.564,10:47:39.154
-77.135,10:47:39.156
-79.474,10:47:39.158
-81.555,10:47:39.160
-83.354,10:47:39.162
-84.847,10:47:39.164
-86.012,10:47:39.166
-86.831,10:47:39.167
-87.285,10:47:39.169
-87.358,10:47:39.171
-87.04,10:47:39.173
-86.318,10:47:39.175
-85.187,10:47:39.177
-83.641,10:47:39.179
-81.679,10:47:39.181
-79.303,10:47:39.183
-76.518,10:47:39.185
-73.331,10:47:39.187
-69.753,10:47:39.189
-65.797,10:47:39.191
-61.48,10:47:39.193
-56.82,10:47:39.195
-51.837,10:47:39.197
-46.554,10:47:39.199
-40.995,10:47:39.201
-35.186,10:47:39.203
-29.154,10:47:39.205
-22.928,10:47:39.207
-16.538,10:47:39.208
-10.015,10:47:39.210
-3.392,10:47:39.212
3.3,10:47:39.214
10.026,10:47:39.216
16.753,10:47:39.218
23.447,10:47:39.220
30.073,10:47:39.222
36.6,10:47:39.224
42.993,10:47:39.226
49.221,10:47:39.228
55.252,10:47:39.230
61.059,10:47:39.232
66.611,10:47:39.234
71.882,10:47:39.236
76.849,10:47:39.238
81.487,10:47:39.240
85.777,10:47:39.242
89.701,10:47:39.244
93.244,10:47:39.246
96.393,10:47:39.248
99.139,10:47:39.250
101.475,10:47:39.251
103.397,10:47:39.253
104.905,10:47:39.255
106.001,10:47:39.257
106.687,10:47:39.259
106.97,10:47:39.261
106.858,10:47:39.263
106.362,10:47:39.265
105.492,10:47:39.267
104.263,10:47:39.269
102.69,10:47:39.271
100.79,10:47:39.273
98.581,10:47:39.275
96.083,10:47:39.277
93.319,10:47:39.279
90.309,10:47:39.281
87.077,10:47:39.283
83.646,10:47:39.285
80.04,10:47:39.287
76.28,10:47:39.289
72.392,10:47:39.291
68.398,10:47:39.292
64.321,10:47:39.294
60.185,10:47:39.296
56.011,10:47:39.298
51.823,10:47:39.300
47.642,10:47:39.302
43.488,10:47:39.304
39.382,10:47:39.306
35.339,10:47:39.308
31.376,10:47:39.310
27.506,10:47:39.312
23.74,10:47:39.314
20.087,10:47:39.316
16.553,10:47:39.318
13.143,10:47:39.320
9.858,10:47:39.322
6.702,10:47:39.324
3.676,10:47:39.326
0.779,10:47:39.328
-1.99,10:47:39.330
-4.634,10:47:39.332
-7.159,10:47:39.333
-9.569,10:47:39.335
-11.87,10:47:39.337
-14.071,10:47:39.339
-16.184,10:47:39.341
-18.217,10:47:39.343
-20.182,10:47:39.345
-22.089,10:47:39.347
-23.945,10:47:39.349
-25.757,10:47:39.351
-27.535,10:47:39.353
-29.286,10:47:39.355
-31.018,10:47:39.357
-32.739,10:47:39.359
-34.458,10:47:39.361
-36.183,10:47:39.363
-37.927,10:47:39.365
-39.701,10:47:39.367
-41.513,10:47:39.369
-43.369,10:47:39.371
-45.273,10:47:39.373
-47.227,10:47:39.375
-49.23,10:47:39.376
-51.279,10:47:39.378
-53.365,10:47:39.380
-55.478,10:47:39.382
-57.61,10:47:39.384
-59.752,10:47:39.386
-61.897,10:47:39.388
-64.041,10:47:39.390
-66.177,10:47:39.392
-68.299,10:47:39.394
-70.405,10:47:39.396
-72.488,10:47:39.398
-74.542,10:47:39.400
-76.554,10:47:39.402
-78.511,10:47:39.404
-80.398,10:47:39.406
-82.198,10:47:39.408
-83.893,10:47:39.410
-85.467,10:47:39.412
-86.909,10:47:39.414
-88.208,10:47:39.416
-89.359,10:47:39.417
-90.368,10:47:39.419
-91.231,10:47:39.421
-91.938,10:47:39.423
-92.47,10:47:39.425
-92.791,10:47:39.427
-92.881,10:47:39.429
-92.733,10:47:39.431
-92.333,10:47:39.433
-91.671,10:47:39.435
-90.755,10:47:39.437
-89.617,10:47:39.439
-88.34,10:47:39.441
-87.056,10:47:39.443
-85.882,10:47:39.445
-84.902,10:47:39.447
-84.158,10:47:39.449
-83.654,10:47:39.451
-83.409,10:47:39.453
-83.447,10:47:39.455
-83.79,10:47:39.457
-84.442,10:47:39.458
-85.363,10:47:39.460
-86.519,10:47:39.462
-87.926,10:47:39.464
-89.669,10:47:39.466
-91.802,10:47:39.468
-94.243,10:47:39.470
-96.73,10:47:39.472
-98.832,10:47:39.474
-100.168,10:47:39.476
-100.531,10:47:39.478
-99.884,10:47:39.480
-98.183,10:47:39.482
-95.231,10:47:39.484
-90.999,10:47:39.486
-85.781,10:47:39.488
-80.255,10:47:39.490
-75.248,10:47:39.492
-71.156,10:47:39.494
-67.72,10:47:39.496
-64.53,10:47:39.498
-61.694,10:47:39.500
-59.37,10:47:39.501
-57.465,10:47:39.503
-55.408,10:47:39.505
-52.054,10:47:39.507
-46.92,10:47:39.509
-40.839,10:47:39.511
-35.141,10:47:39.513
-30.636,10:47:39.515
-28.129,10:47:39.517
-28.676,10:47:39.519
-33.916,10:47:39.521
-46.66,10:47:39.523
-69.025,10:47:39.525
-101.271,10:47:39.527
-142.831,10:47:39.529
-193.004,10:47:39.531
-250.432,10:47:39.533
-313.051,10:47:39.535
-377.903,10:47:39.537
-440.3,10:47:39.539
-495.908,10:47:39.541
-542.03,10:47:39.542
-576.312,10:47:39.544
-596.708,10:47:39.546
-602.104,10:47:39.548
-592.626,10:47:39.550
-569.554,10:47:39.552
-535.789,10:47:39.554
-494.274,10:47:39.556
-446.876,10:47:39.558
-396.181,10:47:39.560
-345.553,10:47:39.562
-298.264,10:47:39.564
-256.377,10:47:39.566
-220.875,10:47:39.568
-191.79,10:47:39.570
-169.12,10:47:39.572
-153.98,10:47:39.574
-146.52,10:47:39.576
-145.07,10:47:39.578
-147.147,10:47:39.580
-150.906,10:47:39.582
-155.321,10:47:39.583
-159.972,10:47:39.585
-164.383,10:47:39.587
-166.871,10:47:39.589
-166.179,10:47:39.591
-162.632,10:47:39.593
-157.424,10:47:39.595
-151.701,10:47:39.597
-146.087,10:47:39.599
-140.625,10:47:39.601
-135.317,10:47:39.603
-130.785,10:47:39.605
-127.536,10:47:39.607
-125.43,10:47:39.609
-123.882,10:47:39.611
-122.196,10:47:39.613
-119.969,10:47:39.615
-117.16,10:47:39.617
-113.817,10:47:39.619
-109.973,10:47:39.621
-105.739,10:47:39.623
-101.286,10:47:39.625
-96.911,10:47:39.626
-92.89,10:47:39.628
-89.312,10:47:39.630
-86.187,10:47:39.632
-83.479,10:47:39.634
-81.091,10:47:39.636
-78.968,10:47:39.638
-77.08,10:47:39.640
-75.324,10:47:39.642
-73.654,10:47:39.644
-72.154,10:47:39.646
-70.881,10:47:39.648
-69.909,10:47:39.650
-69.267,10:47:39.652
-68.817,10:47:39.654
-68.407,10:47:39.656
-68.027,10:47:39.658
-67.707,10:47:39.660
-67.196,10:47:39.662
-66.199,10:47:39.664
-64.817,10:47:39.666
-63.03,10:47:39.667
-60.817,10:47:39.669
-58.754,10:47:39.671
-55.348,10:47:39.673
-49.124,10:47:39.675
-42.158,10:47:39.677
-35.074,10:47:39.679
-31.728,10:47:39.681
-36.741,10:47:39.683
-45.005,10:47:39.685
-53.112,10:47:39.687
-55.987,10:47:39.689
-46.664,10:47:39.691
-31.335,10:47:39.693
-15.251,10:47:39.695
-2.024,10:47:39.697
2.408,10:47:39.699
2.271,10:47:39.701
1.845,10:47:39.703
2.068,10:47:39.705
5.54,10:47:39.707
10.723,10:47:39.708
15.647,10:47:39.710
20.669,10:47:39.712
25.522,10:47:39.714
30.313,10:47:39.716
35.414,10:47:39.718
40.545,10:47:39.720
45.475,10:47:39.722
50.255,10:47:39.724
54.88,10:47:39.726
59.305,10:47:39.728
63.515,10:47:39.730
67.508,10:47:39.732
71.273,10:47:39.734
74.829,10:47:39.736
78.204,10:47:39.738
81.362,10:47:39.740
84.265,10:47:39.742
86.906,10:47:39.744
89.266,10:47:39.746
91.332,10:47:39.748
93.093,10:47:39.750
94.53,10:47:39.751
95.627,10:47:39.753
96.378,10:47:39.755
96.778,10:47:39.757
96.822,10:47:39.759
96.505,10:47:39.761
95.823,10:47:39.763
94.773,10:47:39.765
93.354,10:47:39.767
91.565,10:47:39.769
89.409,10:47:39.771
86.885,10:47:39.773
83.997,10:47:39.775
80.749,10:47:39.777
77.147,10:47:39.779
73.201,10:47:39.781
68.918,10:47:39.783
64.31,10:47:39.785
59.388,10:47:39.787
54.165,10:47:39.789
48.656,10:47:39.791
42.875,10:47:39.792
36.84,10:47:39.794
30.567,10:47:39.796
24.075,10:47:39.798
17.384,10:47:39.800
10.515,10:47:39.802
3.49,10:47:39.804
-3.669,10:47:39.806
-10.937,10:47:39.808
-18.292,10:47:39.810
-25.709,10:47:39.812
-33.162,10:47:39.814
-40.629,10:47:39.816
-48.084,10:47:39.818
-55.504,10:47:39.820
-62.864,10:47:39.822
-70.142,10:47:39.824
-77.316,10:47:39.826
-84.362,10:47:39.828
-91.259,10:47:39.830
-97.986,10:47:39.832
-104.524,10:47:39.833
-110.853,10:47:39.835
-116.955,10:47:39.837
-122.814,10:47:39.839
-128.413,10:47:39.841
-133.74,10:47:39.843
-138.781,10:47:39.845
-143.527,10:47:39.847
-147.967,10:47:39.849
-152.094,10:47:39.851
-155.904,10:47:39.853
-159.391,10:47:39.855
-162.553,10:47:39.857
-165.39,10:47:39.859
-167.903,10:47:39.861
-170.094,10:47:39.863
-171.968,10:47:39.865
-173.531,10:47:39.867
-174.792,10:47:39.869
-175.759,10:47:39.871
-176.446,10:47:39.873
-176.863,10:47:39.875
-177.025,10:47:39.876
-176.948,10:47:39.878
-176.647,10:47:39.880
-176.14,10:47:39.882
-175.445,10:47:39.884
-174.578,10:47:39.886
-173.561,10:47:39.888
-172.412,10:47:39.890
-171.152,10:47:39.892
-169.8,10:47:39.894
-168.377,10:47:39.896
-166.903,10:47:39.898
-165.4,10:47:39.900
-163.885,10:47:39.902
-162.38,10:47:39.904
-160.903,10:47:39.906
-159.472,10:47:39.908
-158.104,10:47:39.910
-156.815,10:47:39.912
-155.621,10:47:39.914
-154.536,10:47:39.916
-153.573,10:47:39.917
-152.744,10:47:39.919
-152.059,10:47:39.921
-151.528,10:47:39.923
-151.159,10:47:39.925
-150.959,10:47:39.927
-150.931,10:47:39.929
-151.08,10:47:39.931
-151.408,10:47:39.933
-151.913,10:47:39.935
-152.595,10:47:39.937
-153.45,10:47:39.939
-154.474,10:47:39.941
-155.661,10:47:39.943
-157.005,10:47:39.945
-158.495,10:47:39.947
-160.125,10:47:39.949
-161.882,10:47:39.951
-163.756,10:47:39.953
-165.733,10:47:39.955
-167.802,10:47:39.957
-169.947,10:47:39.958
-172.154,10:47:39.960
-174.409,10:47:39.962
-176.696,10:47:39.964
-178.999,10:47:39.966
-181.304,10:47:39.968
-183.595,10:47:39.970
-185.858,10:47:39.972
-188.079,10:47:39.974
-190.243,10:47:39.976
-192.338,10:47:39.978
-194.35,10:47:39.980
-196.267,10:47:39.982
-198.078,10:47:39.984
-199.773,10:47:39.986
-201.342,10:47:39.988
-202.777,10:47:39.990
-204.071,10:47:39.992
-205.219,10:47:39.994
-206.216,10:47:39.996
-207.059,10:47:39.998
-207.748,10:47:40.000
-208.281,10:47:40.001
-208.661,10:47:40.003
-208.89,10:47:40.005
-208.971,10:47:40.007
-208.91,10:47:40.009
-208.714,10:47:40.011
-208.389,10:47:40.013
-207.945,10:47:40.015
-207.391,10:47:40.017
-206.738,10:47:40.019
-205.998,10:47:40.021
-205.182,10:47:40.023
-204.304,10:47:40.025
-203.377,10:47:40.027
-202.415,10:47:40.029
-201.43,10:47:40.031
-200.438,10:47:40.033
-199.45,10:47:40.035
-198.482,10:47:40.037
-197.545,10:47:40.039
-196.652,10:47:40.041
-195.815,10:47:40.042
-195.046,10:47:40.044
-194.356,10:47:40.046
-193.754,10:47:40.048
-193.25,10:47:40.050
-192.852,10:47:40.052
-192.565,10:47:40.054
-192.397,10:47:40.056
-192.35,10:47:40.058
-192.428,10:47:40.060
-192.631,10:47:40.062
-192.961,10:47:40.064
-193.416,10:47:40.066
-193.993,10:47:40.068
-194.688,10:47:40.070
-195.495,10:47:40.072
-196.408,10:47:40.074
-197.419,10:47:40.076
-198.519,10:47:40.078
-199.696,10:47:40.080
-200.938,10:47:40.082
-202.234,10:47:40.083
-203.568,10:47:40.085
-204.927,10:47:40.087
-206.294,10:47:40.089
-207.654,10:47:40.091
-208.989,10:47:40.093
-210.284,10:47:40.095
-211.521,10:47:40.097
-212.682,10:47:40.099
-213.75,10:47:40.101
-214.709,10:47:40.103
-215.541,10:47:40.105
-216.23,10:47:40.107
-216.759,10:47:40.109
-217.115,10:47:40.111
-217.28,10:47:40.113
-217.243,10:47:40.115
-216.988,10:47:40.117
-216.506,10:47:40.119
-215.784,10:47:40.121
-214.812,10:47:40.123
-213.583,10:47:40.125
-212.088,10:47:40.126
-210.322,10:47:40.128
-208.279,10:47:40.130
-205.956,10:47:40.132
-203.351,10:47:40.134
-200.463,10:47:40.136
-197.291,10:47:40.138
-193.839,10:47:40.140
-190.108,10:47:40.142
-186.104,10:47:40.144
-181.832,10:47:40.146
-177.3,10:47:40.148
-172.516,10:47:40.150
-167.491,10:47:40.152
-162.235,10:47:40.154
-156.761,10:47:40.156
-151.082,10:47:40.158
-145.212,10:47:40.160
-139.165,10:47:40.162
-132.957,10:47:40.164
-126.603,10:47:40.166
-120.119,10:47:40.167
-113.521,10:47:40.169
-106.826,10:47:40.171
-100.05,10:47:40.173
-93.211,10:47:40.175
-86.325,10:47:40.177
-79.408,10:47:40.179
-72.478,10:47:40.181
-65.551,10:47:40.183
-58.64,10:47:40.185
-51.762,10:47:40.187
-44.93,10:47:40.189
-38.157,10:47:40.191
-31.455,10:47:40.193
-24.838,10:47:40.195
-18.317,10:47:40.197
-11.903,10:47:40.199
-5.607,10:47:40.201
0.562,10:47:40.203
6.595,10:47:40.205
12.483,10:47:40.207
18.22,10:47:40.208
23.801,10:47:40.210
29.223,10:47:40.212
34.483,10:47:40.214
39.581,10:47:40.216
44.515,10:47:40.218
49.287,10:47:40.220
53.898,10:47:40.222
58.349,10:47:40.224
62.642,10:47:40.226
66.777,10:47:40.228
70.757,10:47:40.230
74.585,10:47:40.232
78.262,10:47:40.234
81.793,10:47:40.236
85.183,10:47:40.238
88.436,10:47:40.240
91.556,10:47:40.242
94.548,10:47:40.244
97.417,10:47:40.246
100.165,10:47:40.248
102.794,10:47:40.250
105.303,10:47:40.251
107.695,10:47:40.253
109.968,10:47:40.255
112.123,10:47:40.257
114.163,10:47:40.259
116.087,10:47:40.261
117.899,10:47:40.263
119.6,10:47:40.265
121.193,10:47:40.267
122.681,10:47:40.269
124.062,10:47:40.271
125.335,10:47:40.273
126.494,10:47:40.275
127.536,10:47:40.277
128.456,10:47:40.279
129.249,10:47:40.281
129.911,10:47:40.283
130.439,10:47:40.285
130.829,10:47:40.287
131.079,10:47:40.289
131.191,10:47:40.291
131.167,10:47:40.292
131.013,10:47:40.294
130.728,10:47:40.296
130.31,10:47:40.298
129.759,10:47:40.300
129.073,10:47:40.302
128.253,10:47:40.304
127.297,10:47:40.306
126.202,10:47:40.308
124.963,10:47:40.310
123.577,10:47:40.312
122.048,10:47:40.314
120.386,10:47:40.316
118.607,10:47:40.318
116.726,10:47:40.320
114.759,10:47:40.322
112.721,10:47:40.324
110.622,10:47:40.326
108.477,10:47:40.328
106.296,10:47:40.330
104.084,10:47:40.332
101.837,10:47:40.333
99.554,10:47:40.335
97.237,10:47:40.337
94.909,10:47:40.339
92.626,10:47:40.341
90.443,10:47:40.343
88.407,10:47:40.345
86.535,10:47:40.347
84.82,10:47:40.349
83.227,10:47:40.351
81.698,10:47:40.353
80.173,10:47:40.355
78.574,10:47:40.357
76.827,10:47:40.359
74.877,10:47:40.361
72.707,10:47:40.363
70.342,10:47:40.365
67.862,10:47:40.367
65.384,10:47:40.369
62.945,10:47:40.371
60.491,10:47:40.373
57.903,10:47:40.375
55.038,10:47:40.376
51.86,10:47:40.378
48.459,10:47:40.380
45.018,10:47:40.382
41.736,10:47:40.384
38.783,10:47:40.386
36.311,10:47:40.388
34.566,10:47:40.390
33.927,10:47:40.392
34.549,10:47:40.394
36.165,10:47:40.396
38.046,10:47:40.398
39.322,10:47:40.400
39.618,10:47:40.402
39.243,10:47:40.404
38.736,10:47:40.406
38.208,10:47:40.408
37.756,10:47:40.410
38.006,10:47:40.412
40.202,10:47:40.414
45.707,10:47:40.416
55.066,10:47:40.417
67.239,10:47:40.419
80.191,10:47:40.421
92.69,10:47:40.423
103.549,10:47:40.425
110.834,10:47:40.427
112.473,10:47:40.429
106.423,10:47:40.431
91.203,10:47:40.433
67.336,10:47:40.435
36.772,10:47:40.437
0.366,10:47:40.439
-40.249,10:47:40.441
-81.939,10:47:40.443
-122.086,10:47:40.445
-158.047,10:47:40.447
-187.288,10:47:40.449
-209.027,10:47:40.451
-223.328,10:47:40.453
-228.981,10:47:40.455
-226.306,10:47:40.457
-217.641,10:47:40.458
-204.576,10:47:40.460
-188.885,10:47:40.462
-172.33,10:47:40.464
-155.35,10:47:40.466
-138.439,10:47:40.468
-123.196,10:47:40.470
-109.953,10:47:40.472
-97.608,10:47:40.474
-85.663,10:47:40.476
-73.489,10:47:40.478
-60.649,10:47:40.480
-47.656,10:47:40.482
-34.71,10:47:40.484
-21.482,10:47:40.486
-8.242,10:47:40.488
4.31,10:47:40.490
15.804,10:47:40.492
25.871,10:47:40.494
34.363,10:47:40.496
41.616,10:47:40.498
47.805,10:47:40.500
53.013,10:47:40.501
57.537,10:47:40.503
61.638,10:47:40.505
65.482,10:47:40.507
69.227,10:47:40.509
72.924,10:47:40.511
76.551,10:47:40.513
80.169,10:47:40.515
83.86,10:47:40.517
87.658,10:47:40.519
91.613,10:47:40.521
95.747,10:47:40.523
100.055,10:47:40.525
104.547,10:47:40.527
109.192,10:47:40.529
113.917,10:47:40.531
118.602,10:47:40.533
123.113,10:47:40.535
127.364,10:47:40.537
131.318,10:47:40.539
134.966,10:47:40.541
138.316,10:47:40.542
141.377,10:47:40.544
144.161,10:47:40.546
146.7,10:47:40.548
149.041,10:47:40.550
151.214,10:47:40.552
153.236,10:47:40.554
155.12,10:47:40.556
156.871,10:47:40.558
158.514,10:47:40.560
160.091,10:47:40.562
161.649,10:47:40.564
163.238,10:47:40.566
164.899,10:47:40.568
166.665,10:47:40.570
168.569,10:47:40.572
170.638,10:47:40.574
172.892,10:47:40.576
175.346,10:47:40.578
178.002,10:47:40.580
180.858,10:47:40.582
183.915,10:47:40.583
187.181,10:47:40.585
190.661,10:47:40.587
194.362,10:47:40.589
198.287,10:47:40.591
202.435,10:47:40.593
206.808,10:47:40.595
211.404,10:47:40.597
216.216,10:47:40.599
221.234,10:47:40.601
226.443,10:47:40.603
231.824,10:47:40.605
237.359,10:47:40.607
243.026,10:47:40.609
248.804,10:47:40.611
254.672,10:47:40.613
260.605,10:47:40.615
266.582,10:47:40.617
272.578,10:47:40.619
278.569,10:47:40.621
284.531,10:47:40.623
290.437,10:47:40.625
296.258,10:47:40.626
301.968,10:47:40.628
307.539,10:47:40.630
312.944,10:47:40.632
318.154,10:47:40.634
323.144,10:47:40.636
327.889,10:47:40.638
332.363,10:47:40.640
336.547,10:47:40.642
340.418,10:47:40.644
343.956,10:47:40.646
347.14,10:47:40.648
349.953,10:47:40.650
352.377,10:47:40.652
354.397,10:47:40.654
355.997,10:47:40.656
357.166,10:47:40.658
357.892,10:47:40.660
358.166,10:47:40.662
357.983,10:47:40.664
357.339,10:47:40.666
356.233,10:47:40.667
354.665,10:47:40.669
352.637,10:47:40.671
350.153,10:47:40.673
347.218,10:47:40.675
343.839,10:47:40.677
340.025,10:47:40.679
335.786,10:47:40.681
331.132,10:47:40.683
326.076,10:47:40.685
320.633,10:47:40.687
314.818,10:47:40.689
308.648,10:47:40.691
302.143,10:47:40.693
295.32,10:47:40.695
288.199,10:47:40.697
280.803,10:47:40.699
273.151,10:47:40.701
265.267,10:47:40.703
257.174,10:47:40.705
248.893,10:47:40.707
240.451,10:47:40.708
231.869,10:47:40.710
223.174,10:47:40.712
214.39,10:47:40.714
205.54,10:47:40.716
196.65,10:47:40.718
187.744,10:47:40.720
178.844,10:47:40.722
169.975,10:47:40.724
161.159,10:47:40.726
152.418,10:47:40.728
143.772,10:47:40.730
135.244,10:47:40.732
126.851,10:47:40.734
118.615,10:47:40.736
110.553,10:47:40.738
102.682,10:47:40.740
95.021,10:47:40.742
87.585,10:47:40.744
80.389,10:47:40.746
73.446,10:47:40.748
66.771,10:47:40.750
60.375,10:47:40.751
54.27,10:47:40.753
48.464,10:47:40.755
42.968,10:47:40.757
37.788,10:47:40.759
32.931,10:47:40.761
28.403,10:47:40.763
24.209,10:47:40.765
20.351,10:47:40.767
16.832,10:47:40.769
13.653,10:47:40.771
10.813,10:47:40.773
8.311,10:47:40.775
6.145,10:47:40.777
4.311,10:47:40.779
2.806,10:47:40.781
1.624,10:47:40.783
0.759,10:47:40.785
0.205,10:47:40.787
-0.045,10:47:40.789
-0,10:47:40.791
0.331,10:47:40.792
0.941,10:47:40.794
1.818,10:47:40.796
2.951,10:47:40.798
4.331,10:47:40.800
5.944,10:47:40.802
7.779,10:47:40.804
9.822,10:47:40.806
12.061,10:47:40.808
14.481,10:47:40.810
17.067,10:47:40.812
19.807,10:47:40.814
22.684,10:47:40.816
25.684,10:47:40.818
28.791,10:47:40.820
31.99,10:47:40.822
35.264,10:47:40.824
38.598,10:47:40.826
41.977,10:47:40.828
45.383,10:47:40.830
48.803,10:47:40.832
52.22,10:47:40.833
55.62,10:47:40.835
58.988,10:47:40.837
62.31,10:47:40.839
65.572,10:47:40.841
68.762,10:47:40.843
71.865,10:47:40.845
74.869,10:47:40.847
77.762,10:47:40.849
80.532,10:47:40.851
83.168,10:47:40.853
85.659,10:47:40.855
87.995,10:47:40.857
90.166,10:47:40.859
92.165,10:47:40.861
93.982,10:47:40.863
95.612,10:47:40.865
97.047,10:47:40.867
98.282,10:47:40.869
99.314,10:47:40.871
100.137,10:47:40.873
100.751,10:47:40.875
101.153,10:47:40.876
101.342,10:47:40.878
101.321,10:47:40.880
101.091,10:47:40.882
100.654,10:47:40.884
100.016,10:47:40.886
99.182,10:47:40.888
98.157,10:47:40.890
96.949,10:47:40.892
95.566,10:47:40.894
94.016,10:47:40.896
92.309,10:47:40.898
90.454,10:47:40.900
88.461,10:47:40.902
86.343,10:47:40.904
84.11,10:47:40.906
81.774,10:47:40.908
79.35,10:47:40.910
76.848,10:47:40.912
74.284,10:47:40.914
71.671,10:47:40.916
69.023,10:47:40.917
66.353,10:47:40.919
63.677,10:47:40.921
61.009,10:47:40.923
58.362,10:47:40.925
55.751,10:47:40.927
53.19,10:47:40.929
50.692,10:47:40.931
48.271,10:47:40.933
45.941,10:47:40.935
43.712,10:47:40.937
41.596,10:47:40.939
39.604,10:47:40.941
37.745,10:47:40.943
36.028,10:47:40.945
34.46,10:47:40.947
33.047,10:47:40.949
31.794,10:47:40.951
30.706,10:47:40.953
29.787,10:47:40.955
29.038,10:47:40.957
28.461,10:47:40.958
28.057,10:47:40.960
27.825,10:47:40.962
27.765,10:47:40.964
27.874,10:47:40.966
28.149,10:47:40.968
28.586,10:47:40.970
29.181,10:47:40.972
29.929,10:47:40.974
30.823,10:47:40.976
31.857,10:47:40.978
33.023,10:47:40.980
34.314,10:47:40.982
35.721,10:47:40.984
37.235,10:47:40.986
38.847,10:47:40.988
40.545,10:47:40.990
42.319,10:47:40.992
44.159,10:47:40.994
46.052,10:47:40.996
47.988,10:47:40.998
49.955,10:47:41.000
51.942,10:47:41.001
53.939,10:47:41.003
55.936,10:47:41.005
57.922,10:47:41.007
59.89,10:47:41.009
61.829,10:47:41.011
63.733,10:47:41.013
65.594,10:47:41.015
67.403,10:47:41.017
69.156,10:47:41.019
70.845,10:47:41.021
72.466,10:47:41.023
74.014,10:47:41.025
75.485,10:47:41.027
76.874,10:47:41.029
78.181,10:47:41.031
79.401,10:47:41.033
80.533,10:47:41.035
81.577,10:47:41.037
82.531,10:47:41.039
83.395,10:47:41.041
84.17,10:47:41.042
84.856,10:47:41.044
85.456,10:47:41.046
85.971,10:47:41.048
86.406,10:47:41.050
86.762,10:47:41.052
87.047,10:47:41.054
87.264,10:47:41.056
87.419,10:47:41.058
87.518,10:47:41.060
87.566,10:47:41.062
87.57,10:47:41.064
87.535,10:47:41.066
87.467,10:47:41.068
87.372,10:47:41.070
87.253,10:47:41.072
87.116,10:47:41.074
86.966,10:47:41.076
86.807,10:47:41.078
86.646,10:47:41.080
86.486,10:47:41.082
86.331,10:47:41.083
86.187,10:47:41.085
86.056,10:47:41.087
85.943,10:47:41.089
85.852,10:47:41.091
85.785,10:47:41.093
85.744,10:47:41.095
85.733,10:47:41.097
85.752,10:47:41.099
85.806,10:47:41.101
85.895,10:47:41.103
86.021,10:47:41.105
86.185,10:47:41.107
86.386,10:47:41.109
86.625,10:47:41.111
86.901,10:47:41.113
87.211,10:47:41.115
87.554,10:47:41.117
87.925,10:47:41.119
88.321,10:47:41.121
88.74,10:47:41.123
89.179,10:47:41.125
89.637,10:47:41.126
90.111,10:47:41.128
90.601,10:47:41.130
91.107,10:47:41.132
91.631,10:47:41.134
92.176,10:47:41.136
92.743,10:47:41.138
93.333,10:47:41.140
93.949,10:47:41.142
94.591,10:47:41.144
95.263,10:47:41.146
95.967,10:47:41.148
96.705,10:47:41.150
97.48,10:47:41.152
98.296,10:47:41.154
99.156,10:47:41.156
100.067,10:47:41.158
101.035,10:47:41.160
102.065,10:47:41.162
103.163,10:47:41.164
104.335,10:47:41.166
105.588,10:47:41.167
106.93,10:47:41.169
108.368,10:47:41.171
109.912,10:47:41.173
111.571,10:47:41.175
113.355,10:47:41.177
115.276,10:47:41.179
117.348,10:47:41.181
119.583,10:47:41.183
121.99,10:47:41.185
124.578,10:47:41.187
127.354,10:47:41.189
130.322,10:47:41.191
133.484,10:47:41.193
136.837,10:47:41.195
140.373,10:47:41.197
144.083,10:47:41.199
147.959,10:47:41.201
151.995,10:47:41.203
156.181,10:47:41.205
160.508,10:47:41.207
164.966,10:47:41.208
169.55,10:47:41.210
174.256,10:47:41.212
179.078,10:47:41.214
184.002,10:47:41.216
189.009,10:47:41.218
194.073,10:47:41.220
199.164,10:47:41.222
204.256,10:47:41.224
209.315,10:47:41.226
214.304,10:47:41.228
219.181,10:47:41.230
223.906,10:47:41.232
228.447,10:47:41.234
232.782,10:47:41.236
236.884,10:47:41.238
240.714,10:47:41.240
244.219,10:47:41.242
247.333,10:47:41.244
250.004,10:47:41.246
252.208,10:47:41.248
253.926,10:47:41.250
255.144,10:47:41.251
255.859,10:47:41.253
256.087,10:47:41.255
255.88,10:47:41.257
255.338,10:47:41.259
254.552,10:47:41.261
253.574,10:47:41.263
252.408,10:47:41.265
251.015,10:47:41.267
249.366,10:47:41.269
247.44,10:47:41.271
245.219,10:47:41.273
242.689,10:47:41.275
239.78,10:47:41.277
236.406,10:47:41.279
232.506,10:47:41.281
228.046,10:47:41.283
222.979,10:47:41.285
217.214,10:47:41.287
210.577,10:47:41.289
202.805,10:47:41.291
193.691,10:47:41.292
183.137,10:47:41.294
171.153,10:47:41.296
157.835,10:47:41.298
143.286,10:47:41.300
127.645,10:47:41.302
111.104,10:47:41.304
93.921,10:47:41.306
76.457,10:47:41.308
59.049,10:47:41.310
41.957,10:47:41.312
25.381,10:47:41.314
9.529,10:47:41.316
-5.327,10:47:41.318
-18.806,10:47:41.320
-30.432,10:47:41.322
-39.829,10:47:41.324
-46.758,10:47:41.326
-51.095,10:47:41.328
-52.809,10:47:41.330
-51.888,10:47:41.332
-48.399,10:47:41.333
-42.522,10:47:41.335
-34.568,10:47:41.337
-24.956,10:47:41.339
-14.042,10:47:41.341
-2.075,10:47:41.343
10.763,10:47:41.345
24.288,10:47:41.347
38.26,10:47:41.349
52.345,10:47:41.351
66.16,10:47:41.353
79.417,10:47:41.355
91.907,10:47:41.357
103.479,10:47:41.359
114.027,10:47:41.361
123.446,10:47:41.363
131.709,10:47:41.365
138.893,10:47:41.367
145.188,10:47:41.369
150.848,10:47:41.371
156.051,10:47:41.373
160.883,10:47:41.375
165.38,10:47:41.376
169.566,10:47:41.378
173.491,10:47:41.380
177.24,10:47:41.382
180.896,10:47:41.384
184.48,10:47:41.386
188.001,10:47:41.388
191.467,10:47:41.390
194.887,10:47:41.392
198.278,10:47:41.394
201.618,10:47:41.396
204.832,10:47:41.398
207.793,10:47:41.400
210.364,10:47:41.402
212.452,10:47:41.404
214.011,10:47:41.406
215.022,10:47:41.408
215.478,10:47:41.410
215.375,10:47:41.412
214.715,10:47:41.414
213.524,10:47:41.416
211.858,10:47:41.417
209.762,10:47:41.419
207.275,10:47:41.421
204.428,10:47:41.423
201.251,10:47:41.425
197.787,10:47:41.427
194.099,10:47:41.429
190.259,10:47:41.431
186.339,10:47:41.433
182.404,10:47:41.435
178.512,10:47:41.437
174.719,10:47:41.439
171.081,10:47:41.441
167.647,10:47:41.443
164.461,10:47:41.445
161.556,10:47:41.447
158.958,10:47:41.449
156.699,10:47:41.451
154.811,10:47:41.453
153.327,10:47:41.455
152.279,10:47:41.457
151.694,10:47:41.458
151.593,10:47:41.460
151.997,10:47:41.462
152.924,10:47:41.464
154.386,10:47:41.466
156.388,10:47:41.468
158.928,10:47:41.470
162,10:47:41.472
165.593,10:47:41.474
169.695,10:47:41.476
174.285,10:47:41.478
179.34,10:47:41.480
184.834,10:47:41.482
190.736,10:47:41.484
197.01,10:47:41.486
203.621,10:47:41.488
210.525,10:47:41.490
217.68,10:47:41.492
225.036,10:47:41.494
232.546,10:47:41.496
240.157,10:47:41.498
247.816,10:47:41.500
255.469,10:47:41.501
263.062,10:47:41.503
270.538,10:47:41.505
277.843,10:47:41.507
284.924,10:47:41.509
291.726,10:47:41.511
298.198,10:47:41.513
304.287,10:47:41.515
309.943,10:47:41.517
315.119,10:47:41.519
319.77,10:47:41.521
323.851,10:47:41.523
327.324,10:47:41.525
330.151,10:47:41.527
332.3,10:47:41.529
333.743,10:47:41.531
334.455,10:47:41.533
334.417,10:47:41.535
333.614,10:47:41.537
332.037,10:47:41.539
329.678,10:47:41.541
326.536,10:47:41.542
322.616,10:47:41.544
317.925,10:47:41.546
312.475,10:47:41.548
306.283,10:47:41.550
299.369,10:47:41.552
291.759,10:47:41.554
283.481,10:47:41.556
274.569,10:47:41.558
265.059,10:47:41.560
254.989,10:47:41.562
244.401,10:47:41.564
233.341,10:47:41.566
221.855,10:47:41.568
209.991,10:47:41.570
197.801,10:47:41.572
185.334,10:47:41.574
172.644,10:47:41.576
159.783,10:47:41.578
146.804,10:47:41.580
133.759,10:47:41.582
120.7,10:47:41.583
107.678,10:47:41.585
94.741,10:47:41.587
81.937,10:47:41.589
69.312,10:47:41.591
56.91,10:47:41.593
44.77,10:47:41.595
32.931,10:47:41.597
21.427,10:47:41.599
10.292,10:47:41.601
-0.447,10:47:41.603
-10.765,10:47:41.605
-20.639,10:47:41.607
-30.053,10:47:41.609
-38.991,10:47:41.611
-47.443,10:47:41.613
-55.403,10:47:41.615
-62.865,10:47:41.617
-69.832,10:47:41.619
-76.306,10:47:41.621
-82.295,10:47:41.623
-87.808,10:47:41.625
-92.859,10:47:41.626
-97.465,10:47:41.628
-101.645,10:47:41.630
-105.419,10:47:41.632
-108.812,10:47:41.634
-111.85,10:47:41.636
-114.559,10:47:41.638
-116.968,10:47:41.640
-119.108,10:47:41.642
-121.009,10:47:41.644
-122.702,10:47:41.646
-124.218,10:47:41.648
-125.589,10:47:41.650
-126.846,10:47:41.652
-128.02,10:47:41.654
-129.14,10:47:41.656
-130.234,10:47:41.658
-131.331,10:47:41.660
-132.457,10:47:41.662
-133.636,10:47:41.664
-134.892,10:47:41.666
-136.245,10:47:41.667
-137.715,10:47:41.669
-139.318,10:47:41.671
-141.07,10:47:41.673
-142.984,10:47:41.675
-145.069,10:47:41.677
-147.336,10:47:41.679
-149.789,10:47:41.681
-152.433,10:47:41.683
-155.27,10:47:41.685
-158.298,10:47:41.687
-161.517,10:47:41.689
-164.92,10:47:41.691
-168.503,10:47:41.693
-172.256,10:47:41.695
-176.17,10:47:41.697
-180.235,10:47:41.699
-184.437,10:47:41.701
-188.764,10:47:41.703
-193.202,10:47:41.705
-197.735,10:47:41.707
-202.349,10:47:41.708
-207.028,10:47:41.710
-211.757,10:47:41.712
-216.521,10:47:41.714
-221.306,10:47:41.716
-226.096,10:47:41.718
-230.88,10:47:41.720
-235.643,10:47:41.722
-240.376,10:47:41.724
-245.068,10:47:41.726
-249.71,10:47:41.728
-254.293,10:47:41.730
-258.812,10:47:41.732
-263.261,10:47:41.734
-267.637,10:47:41.736
-271.938,10:47:41.738
-276.162,10:47:41.740
-280.312,10:47:41.742
-284.389,10:47:41.744
-288.397,10:47:41.746
-292.342,10:47:41.748
-296.23,10:47:41.750
-300.07,10:47:41.751
-303.87,10:47:41.753
-307.641,10:47:41.755
-311.394,10:47:41.757
-315.142,10:47:41.759
-318.899,10:47:41.761
-322.676,10:47:41.763
-326.49,10:47:41.765
-330.354,10:47:41.767
-334.283,10:47:41.769
-338.291,10:47:41.771
-342.393,10:47:41.773
-346.602,10:47:41.775
-350.931,10:47:41.777
-355.392,10:47:41.779
-359.997,10:47:41.781
-364.754,10:47:41.783
-369.673,10:47:41.785
-374.76,10:47:41.787
-380.021,10:47:41.789
-385.461,10:47:41.791
-391.08,10:47:41.792
-396.881,10:47:41.794
-402.863,10:47:41.796
-409.023,10:47:41.798
-415.357,10:47:41.800
-421.859,10:47:41.802
-428.523,10:47:41.804
-435.338,10:47:41.806
-442.295,10:47:41.808
-449.383,10:47:41.810
-456.586,10:47:41.812
-463.893,10:47:41.814
-471.286,10:47:41.816
-478.749,10:47:41.818
-486.264,10:47:41.820
-493.814,10:47:41.822
-501.379,10:47:41.824
-508.939,10:47:41.826
-516.474,10:47:41.828
-523.964,10:47:41.830
-531.389,10:47:41.832
-538.727,10:47:41.833
-545.959,10:47:41.835
-553.067,10:47:41.837
-560.03,10:47:41.839
-566.832,10:47:41.841
-573.456,10:47:41.843
-579.886,10:47:41.845
-586.11,10:47:41.847
-592.114,10:47:41.849
-597.888,10:47:41.851
-603.422,10:47:41.853
-608.709,10:47:41.855
-613.742,10:47:41.857
-618.517,10:47:41.859
-623.03,10:47:41.861
-627.282,10:47:41.863
-631.271,10:47:41.865
-635.001,10:47:41.867
-638.475,10:47:41.869
-641.697,10:47:41.871
-644.673,10:47:41.873
-647.412,10:47:41.875
-649.921,10:47:41.876
-652.211,10:47:41.878
-654.292,10:47:41.880
-656.175,10:47:41.882
-657.873,10:47:41.884
-659.4,10:47:41.886
-660.769,10:47:41.888
-661.996,10:47:41.890
-663.095,10:47:41.892
-664.082,10:47:41.894
-664.972,10:47:41.896
-665.782,10:47:41.898
-666.526,10:47:41.900
-667.22,10:47:41.902
-667.878,10:47:41.904
-668.515,10:47:41.906
-669.142,10:47:41.908
-669.775,10:47:41.910
-670.423,10:47:41.912
-671.099,10:47:41.914
-671.811,10:47:41.916
-672.57,10:47:41.917
-673.384,10:47:41.919
-674.26,10:47:41.921
-675.205,10:47:41.923
-676.223,10:47:41.925
-677.32,10:47:41.927
-678.5,10:47:41.929
-679.766,10:47:41.931
-681.121,10:47:41.933
-682.567,10:47:41.935
-684.105,10:47:41.937
-685.736,10:47:41.939
-687.462,10:47:41.941
-689.281,10:47:41.943
-691.194,10:47:41.945
-693.2,10:47:41.947
-695.296,10:47:41.949
-697.481,10:47:41.951
-699.752,10:47:41.953
-702.105,10:47:41.955
-704.538,10:47:41.957
-707.044,10:47:41.958
-709.622,10:47:41.960
-712.264,10:47:41.962
-714.967,10:47:41.964
-717.726,10:47:41.966
-720.534,10:47:41.968
-723.387,10:47:41.970
-726.278,10:47:41.972
-729.2,10:47:41.974
-732.148,10:47:41.976
-735.115,10:47:41.978
-738.094,10:47:41.980
-741.077,10:47:41.982
-744.056,10:47:41.984
-747.024,10:47:41.986
-749.971,10:47:41.988
-752.888,10:47:41.990
-755.764,10:47:41.992
-758.588,10:47:41.994
-761.349,10:47:41.996
-764.033,10:47:41.998
-766.627,10:47:42.000
-769.115,10:47:42.001
-771.483,10:47:42.003
-773.714,10:47:42.005
-775.791,10:47:42.007
-777.698,10:47:42.009
-779.416,10:47:42.011
-780.927,10:47:42.013
-782.213,10:47:42.015
-783.256,10:47:42.017
-784.038,10:47:42.019
-784.539,10:47:42.021
-784.741,10:47:42.023
-784.627,10:47:42.025
-784.179,10:47:42.027
-783.378,10:47:42.029
-782.209,10:47:42.031
-780.656,10:47:42.033
-778.703,10:47:42.035
-776.335,10:47:42.037
-773.54,10:47:42.039
-770.305,10:47:42.041
-766.62,10:47:42.042
-762.473,10:47:42.044
-757.857,10:47:42.046
-752.766,10:47:42.048
-747.195,10:47:42.050
-741.142,10:47:42.052
-734.605,10:47:42.054
-727.587,10:47:42.056
-720.092,10:47:42.058
-712.128,10:47:42.060
-703.702,10:47:42.062
-694.828,10:47:42.064
-685.518,10:47:42.066
-675.788,10:47:42.068
-665.657,10:47:42.070
-655.145,10:47:42.072
-644.273,10:47:42.074
-633.065,10:47:42.076
-621.547,10:47:42.078
-609.746,10:47:42.080
-597.689,10:47:42.082
-585.406,10:47:42.083
-572.928,10:47:42.085
-560.285,10:47:42.087
-547.509,10:47:42.089
-534.632,10:47:42.091
-521.685,10:47:42.093
-508.7,10:47:42.095
-495.708,10:47:42.097
-482.741,10:47:42.099
-469.83,10:47:42.101
-457.004,10:47:42.103
-444.292,10:47:42.105
-431.724,10:47:42.107
-419.328,10:47:42.109
-407.129,10:47:42.111
-395.151,10:47:42.113
-383.417,10:47:42.115
-371.946,10:47:42.117
-360.756,10:47:42.119
-349.863,10:47:42.121
-339.281,10:47:42.123
-329.019,10:47:42.125
-319.087,10:47:42.126
-309.491,10:47:42.128
-300.237,10:47:42.130
-291.326,10:47:42.132
-282.76,10:47:42.134
-274.538,10:47:42.136
-266.655,10:47:42.138
-259.106,10:47:42.140
-251.883,10:47:42.142
-244.976,10:47:42.144
-238.376,10:47:42.146
-232.07,10:47:42.148
-226.044,10:47:42.150
-220.287,10:47:42.152
-214.784,10:47:42.154
-209.524,10:47:42.156
-204.494,10:47:42.158
-199.68,10:47:42.160
-195.069,10:47:42.162
-190.648,10:47:42.164
-186.405,10:47:42.166
-182.327,10:47:42.167
-178.399,10:47:42.169
-174.609,10:47:42.171
-170.944,10:47:42.173
-167.393,10:47:42.175
-163.949,10:47:42.177
-160.605,10:47:42.179
-157.355,10:47:42.181
-154.194,10:47:42.183
-151.12,10:47:42.185
-148.13,10:47:42.187
-145.222,10:47:42.189
-142.394,10:47:42.191
-139.644,10:47:42.193
-136.972,10:47:42.195
-134.373,10:47:42.197
-131.849,10:47:42.199
-129.402,10:47:42.201
-127.034,10:47:42.203
-124.752,10:47:42.205
-122.558,10:47:42.207
-120.458,10:47:42.208
-118.458,10:47:42.210
-116.564,10:47:42.212
-114.779,10:47:42.214
-113.105,10:47:42.216
-111.539,10:47:42.218
-110.08,10:47:42.220
-108.725,10:47:42.222
-107.467,10:47:42.224
-106.298,10:47:42.226
-105.213,10:47:42.228
-104.207,10:47:42.230
-103.276,10:47:42.232
-102.418,10:47:42.234
-101.628,10:47:42.236
-100.897,10:47:42.238
-100.22,10:47:42.240
-99.588,10:47:42.242
-98.989,10:47:42.244
-98.405,10:47:42.246
-97.815,10:47:42.248
-97.19,10:47:42.250
-96.508,10:47:42.251
-95.752,10:47:42.253
-94.908,10:47:42.255
-93.968,10:47:42.257
-92.926,10:47:42.259
-91.772,10:47:42.261
-90.501,10:47:42.263
-89.119,10:47:42.265
-87.62,10:47:42.267
-85.993,10:47:42.269
-84.211,10:47:42.271
-82.217,10:47:42.273
-79.982,10:47:42.275
-77.508,10:47:42.277
-74.819,10:47:42.279
-71.968,10:47:42.281
-69.006,10:47:42.283
-65.966,10:47:42.285
-62.908,10:47:42.287
-59.92,10:47:42.289
-57.055,10:47:42.291
-54.35,10:47:42.292
-51.79,10:47:42.294
-49.287,10:47:42.296
-46.787,10:47:42.298
-44.285,10:47:42.300
-41.816,10:47:42.302
-39.486,10:47:42.304
-37.359,10:47:42.306
-35.42,10:47:42.308
-33.628,10:47:42.310
-31.918,10:47:42.312
-30.216,10:47:42.314
-28.466,10:47:42.316
-26.525,10:47:42.318
-24.138,10:47:42.320
-21.118,10:47:42.322
-17.373,10:47:42.324
-12.959,10:47:42.326
-8.134,10:47:42.328
-3.108,10:47:42.330
2.003,10:47:42.332
7.107,10:47:42.333
12.183,10:47:42.335
17.153,10:47:42.337
21.811,10:47:42.339
25.971,10:47:42.341
29.492,10:47:42.343
32.218,10:47:42.345
33.997,10:47:42.347
34.531,10:47:42.349
33.321,10:47:42.351
29.942,10:47:42.353
24.155,10:47:42.355
15.963,10:47:42.357
5.655,10:47:42.359
-6.489,10:47:42.361
-20.285,10:47:42.363
-35.504,10:47:42.365
-51.904,10:47:42.367
-69.149,10:47:42.369
-86.76,10:47:42.371
-104.348,10:47:42.373
-121.662,10:47:42.375
-138.449,10:47:42.376
-154.432,10:47:42.378
-169.184,10:47:42.380
-182.055,10:47:42.382
-192.441,10:47:42.384
-199.949,10:47:42.386
-204.408,10:47:42.388
-205.891,10:47:42.390
-204.499,10:47:42.392
-200.271,10:47:42.394
-193.356,10:47:42.396
-184.01,10:47:42.398
-172.605,10:47:42.400
-159.632,10:47:42.402
-145.45,10:47:42.404
-130.242,10:47:42.406
-114.178,10:47:42.408
-97.454,10:47:42.410
-80.367,10:47:42.412
-63.363,10:47:42.414
-46.871,10:47:42.416
-31.168,10:47:42.417
-16.423,10:47:42.419
-2.7,10:47:42.421
9.959,10:47:42.423
21.485,10:47:42.425
31.908,10:47:42.427
41.376,10:47:42.429
50.129,10:47:42.431
58.465,10:47:42.433
66.571,10:47:42.435
74.506,10:47:42.437
82.3,10:47:42.439
89.991,10:47:42.441
97.649,10:47:42.443
105.391,10:47:42.445
113.318,10:47:42.447
121.455,10:47:42.449
129.814,10:47:42.451
138.406,10:47:42.453
147.236,10:47:42.455
156.325,10:47:42.457
165.641,10:47:42.458
175.088,10:47:42.460
184.53,10:47:42.462
193.816,10:47:42.464
202.848,10:47:42.466
211.583,10:47:42.468
219.996,10:47:42.470
228.066,10:47:42.472
235.78,10:47:42.474
243.128,10:47:42.476
250.119,10:47:42.478
256.793,10:47:42.480
263.174,10:47:42.482
269.272,10:47:42.484
275.093,10:47:42.486
280.64,10:47:42.488
285.93,10:47:42.490
291,10:47:42.492
295.895,10:47:42.494
300.66,10:47:42.496
305.334,10:47:42.498
309.95,10:47:42.500
314.537,10:47:42.501
319.128,10:47:42.503
323.746,10:47:42.505
328.411,10:47:42.507
333.133,10:47:42.509
337.916,10:47:42.511
342.77,10:47:42.513
347.708,10:47:42.515
352.748,10:47:42.517
357.903,10:47:42.519
363.19,10:47:42.521
368.619,10:47:42.523
374.203,10:47:42.525
379.953,10:47:42.527
385.878,10:47:42.529
391.979,10:47:42.531
398.256,10:47:42.533
404.705,10:47:42.535
411.322,10:47:42.537
418.097,10:47:42.539
425.022,10:47:42.541
432.086,10:47:42.542
439.277,10:47:42.544
446.583,10:47:42.546
453.988,10:47:42.548
461.478,10:47:42.550
469.035,10:47:42.552
476.638,10:47:42.554
484.266,10:47:42.556
491.898,10:47:42.558
499.509,10:47:42.560
507.075,10:47:42.562
514.57,10:47:42.564
521.968,10:47:42.566
529.244,10:47:42.568
536.372,10:47:42.570
543.329,10:47:42.572
550.089,10:47:42.574
556.63,10:47:42.576
562.925,10:47:42.578
568.952,10:47:42.580
574.688,10:47:42.582
580.111,10:47:42.583
585.2,10:47:42.585
589.936,10:47:42.587
594.3,10:47:42.589
598.277,10:47:42.591
601.853,10:47:42.593
605.018,10:47:42.595
607.764,10:47:42.597
610.084,10:47:42.599
611.975,10:47:42.601
613.436,10:47:42.603
614.466,10:47:42.605
615.07,10:47:42.607
615.252,10:47:42.609
615.02,10:47:42.611
614.383,10:47:42.613
613.354,10:47:42.615
611.946,10:47:42.617
610.177,10:47:42.619
608.065,10:47:42.621
605.632,10:47:42.623
602.901,10:47:42.625
599.895,10:47:42.626
596.642,10:47:42.628
593.169,10:47:42.630
589.505,10:47:42.632
585.679,10:47:42.634
581.723,10:47:42.636
577.667,10:47:42.638
573.544,10:47:42.640
569.384,10:47:42.642
565.219,10:47:42.644
561.082,10:47:42.646
557.001,10:47:42.648
553.008,10:47:42.650
549.131,10:47:42.652
545.397,10:47:42.654
541.832,10:47:42.656
538.461,10:47:42.658
535.306,10:47:42.660
532.387,10:47:42.662
529.724,10:47:42.664
527.333,10:47:42.666
525.228,10:47:42.667
523.422,10:47:42.669
521.924,10:47:42.671
520.742,10:47:42.673
519.882,10:47:42.675
519.345,10:47:42.677
519.133,10:47:42.679
519.242,10:47:42.681
519.668,10:47:42.683
520.404,10:47:42.685
521.44,10:47:42.687
522.763,10:47:42.689
524.359,10:47:42.691
526.212,10:47:42.693
528.304,10:47:42.695
530.613,10:47:42.697
533.119,10:47:42.699
535.797,10:47:42.701
538.624,10:47:42.703
541.573,10:47:42.705
544.618,10:47:42.707
547.734,10:47:42.708
550.892,10:47:42.710
554.065,10:47:42.712
557.227,10:47:42.714
560.35,10:47:42.716
563.409,10:47:42.718
566.377,10:47:42.720
569.231,10:47:42.722
571.947,10:47:42.724
574.503,10:47:42.726
576.877,10:47:42.728
579.05,10:47:42.730
581.005,10:47:42.732
582.723,10:47:42.734
584.19,10:47:42.736
585.394,10:47:42.738
586.322,10:47:42.740
586.965,10:47:42.742
587.315,10:47:42.744
587.367,10:47:42.746
587.117,10:47:42.748
586.564,10:47:42.750
585.707,10:47:42.751
584.55,10:47:42.753
583.096,10:47:42.755
581.352,10:47:42.757
579.326,10:47:42.759
577.028,10:47:42.761
574.47,10:47:42.763
571.664,10:47:42.765
568.624,10:47:42.767
565.368,10:47:42.769
561.91,10:47:42.771
558.269,10:47:42.773
554.464,10:47:42.775
550.513,10:47:42.777
546.436,10:47:42.779
542.253,10:47:42.781
537.983,10:47:42.783
533.646,10:47:42.785
529.261,10:47:42.787
524.849,10:47:42.789
520.426,10:47:42.791
516.013,10:47:42.792
511.626,10:47:42.794
507.283,10:47:42.796
502.999,10:47:42.798
498.791,10:47:42.800
494.674,10:47:42.802
490.662,10:47:42.804
486.767,10:47:42.806
483.003,10:47:42.808
479.379,10:47:42.810
475.907,10:47:42.812
472.594,10:47:42.814
469.45,10:47:42.816
466.479,10:47:42.818
463.689,10:47:42.820
461.082,10:47:42.822
458.663,10:47:42.824
456.432,10:47:42.826
454.39,10:47:42.828
452.538,10:47:42.830
450.872,10:47:42.832
449.391,10:47:42.833
448.09,10:47:42.835
446.965,10:47:42.837
446.01,10:47:42.839
445.22,10:47:42.841
444.587,10:47:42.843
444.105,10:47:42.845
443.766,10:47:42.847
443.563,10:47:42.849
443.488,10:47:42.851
443.534,10:47:42.853
443.692,10:47:42.855
443.955,10:47:42.857
444.314,10:47:42.859
444.763,10:47:42.861
445.292,10:47:42.863
445.894,10:47:42.865
446.561,10:47:42.867
447.286,10:47:42.869
448.06,10:47:42.871
448.876,10:47:42.873
449.726,10:47:42.875
450.602,10:47:42.876
451.498,10:47:42.878
452.406,10:47:42.880
453.32,10:47:42.882
454.231,10:47:42.884
455.135,10:47:42.886
456.024,10:47:42.888
456.894,10:47:42.890
457.738,10:47:42.892
458.553,10:47:42.894
459.335,10:47:42.896
460.079,10:47:42.898
460.782,10:47:42.900
461.442,10:47:42.902
462.055,10:47:42.904
462.62,10:47:42.906
463.134,10:47:42.908
463.595,10:47:42.910
464,10:47:42.912
464.347,10:47:42.914
464.634,10:47:42.916
464.858,10:47:42.917
465.017,10:47:42.919
465.109,10:47:42.921
465.131,10:47:42.923
465.081,10:47:42.925
464.956,10:47:42.927
464.755,10:47:42.929
464.474,10:47:42.931
464.112,10:47:42.933
463.667,10:47:42.935
463.137,10:47:42.937
462.521,10:47:42.939
461.818,10:47:42.941
461.028,10:47:42.943
460.149,10:47:42.945
459.182,10:47:42.947
458.127,10:47:42.949
456.983,10:47:42.951
455.751,10:47:42.953
454.431,10:47:42.955
453.022,10:47:42.957
451.524,10:47:42.958
449.936,10:47:42.960
448.259,10:47:42.962
446.492,10:47:42.964
444.633,10:47:42.966
442.684,10:47:42.968
440.643,10:47:42.970
438.51,10:47:42.972
436.285,10:47:42.974
433.969,10:47:42.976
431.561,10:47:42.978
429.063,10:47:42.980
426.475,10:47:42.982
423.798,10:47:42.984
421.034,10:47:42.986
418.185,10:47:42.988
415.253,10:47:42.990
412.239,10:47:42.992
409.146,10:47:42.994
405.977,10:47:42.996
402.735,10:47:42.998
399.421,10:47:43.000
396.038,10:47:43.001
392.589,10:47:43.003
389.076,10:47:43.005
385.501,10:47:43.007
381.865,10:47:43.009
378.171,10:47:43.011
374.421,10:47:43.013
370.618,10:47:43.015
366.764,10:47:43.017
362.863,10:47:43.019
358.917,10:47:43.021
354.93,10:47:43.023
350.906,10:47:43.025
346.849,10:47:43.027
342.764,10:47:43.029
338.655,10:47:43.031
334.527,10:47:43.033
330.386,10:47:43.035
326.235,10:47:43.037
322.082,10:47:43.039
317.932,10:47:43.041
313.79,10:47:43.042
309.662,10:47:43.044
305.554,10:47:43.046
301.47,10:47:43.048
297.417,10:47:43.050
293.4,10:47:43.052
289.422,10:47:43.054
285.488,10:47:43.056
281.604,10:47:43.058
277.772,10:47:43.060
273.997,10:47:43.062
270.284,10:47:43.064
266.636,10:47:43.066
263.057,10:47:43.068
259.552,10:47:43.070
256.123,10:47:43.072
252.773,10:47:43.074
249.507,10:47:43.076
246.325,10:47:43.078
243.23,10:47:43.080
240.222,10:47:43.082
237.303,10:47:43.083
234.471,10:47:43.085
231.728,10:47:43.087
229.07,10:47:43.089
226.497,10:47:43.091
224.005,10:47:43.093
221.592,10:47:43.095
219.253,10:47:43.097
216.984,10:47:43.099
214.779,10:47:43.101
212.631,10:47:43.103
210.534,10:47:43.105
208.479,10:47:43.107
206.46,10:47:43.109
204.468,10:47:43.111
202.495,10:47:43.113
200.533,10:47:43.115
198.575,10:47:43.117
196.612,10:47:43.119
194.637,10:47:43.121
192.641,10:47:43.123
190.618,10:47:43.125
188.559,10:47:43.126
186.456,10:47:43.128
184.301,10:47:43.130
182.086,10:47:43.132
179.805,10:47:43.134
177.451,10:47:43.136
175.017,10:47:43.138
172.499,10:47:43.140
169.892,10:47:43.142
167.193,10:47:43.144
164.398,10:47:43.146
161.505,10:47:43.148
158.511,10:47:43.150
155.416,10:47:43.152
152.218,10:47:43.154
148.918,10:47:43.156
145.517,10:47:43.158
142.017,10:47:43.160
138.421,10:47:43.162
134.734,10:47:43.164
130.963,10:47:43.166
127.115,10:47:43.167
123.199,10:47:43.169
119.221,10:47:43.171
115.191,10:47:43.173
111.117,10:47:43.175
107.008,10:47:43.177
102.872,10:47:43.179
98.716,10:47:43.181
94.548,10:47:43.183
90.374,10:47:43.185
86.204,10:47:43.187
82.046,10:47:43.189
77.908,10:47:43.191
73.798,10:47:43.193
69.725,10:47:43.195
65.695,10:47:43.197
61.716,10:47:43.199
57.793,10:47:43.201
53.931,10:47:43.203
50.133,10:47:43.205
46.399,10:47:43.207
42.732,10:47:43.208
39.134,10:47:43.210
35.606,10:47:43.212
32.15,10:47:43.214
28.767,10:47:43.216
25.46,10:47:43.218
22.227,10:47:43.220
19.07,10:47:43.222
15.985,10:47:43.224
12.97,10:47:43.226
10.017,10:47:43.228
7.118,10:47:43.230
4.264,10:47:43.232
1.45,10:47:43.234
-1.334,10:47:43.236
-4.094,10:47:43.238
-6.837,10:47:43.240
-9.567,10:47:43.242
-12.288,10:47:43.244
-14.995,10:47:43.246
-17.691,10:47:43.248
-20.378,10:47:43.250
-23.06,10:47:43.251
-25.74,10:47:43.253
-28.422,10:47:43.255
-31.111,10:47:43.257
-33.818,10:47:43.259
-36.556,10:47:43.261
-39.333,10:47:43.263
-42.146,10:47:43.265
-44.992,10:47:43.267
-47.864,10:47:43.269
-50.752,10:47:43.271
-53.647,10:47:43.273
-56.538,10:47:43.275
-59.409,10:47:43.277
-62.253,10:47:43.279
-65.068,10:47:43.281
-67.861,10:47:43.283
-70.649,10:47:43.285
-73.44,10:47:43.287
-76.229,10:47:43.289
-79,10:47:43.291
-81.72,10:47:43.292
-84.366,10:47:43.294
-86.938,10:47:43.296
-89.431,10:47:43.298
-91.846,10:47:43.300
-94.209,10:47:43.302
-96.568,10:47:43.304
-99.011,10:47:43.306
-101.675,10:47:43.308
-104.659,10:47:43.310
-108.013,10:47:43.312
-111.763,10:47:43.314
-115.887,10:47:43.316
-120.36,10:47:43.318
-125.17,10:47:43.320
-130.29,10:47:43.322
-135.687,10:47:43.324
-141.339,10:47:43.326
-147.218,10:47:43.328
-153.302,10:47:43.330
-159.591,10:47:43.332
-166.004,10:47:43.333
-172.396,10:47:43.335
-178.535,10:47:43.337
-184.071,10:47:43.339
-188.723,10:47:43.341
-192.308,10:47:43.343
-194.693,10:47:43.345
-195.853,10:47:43.347
-195.837,10:47:43.349
-194.697,10:47:43.351
-192.596,10:47:43.353
-189.779,10:47:43.355
-186.429,10:47:43.357
-182.776,10:47:43.359
-179.043,10:47:43.361
-175.381,10:47:43.363
-172.076,10:47:43.365
-169.488,10:47:43.367
-168.002,10:47:43.369
-168.309,10:47:43.371
-171.061,10:47:43.373
-176.457,10:47:43.375
-184.705,10:47:43.376
-195.839,10:47:43.378
-209.629,10:47:43.380
-226.314,10:47:43.382
-246.051,10:47:43.384
-268.209,10:47:43.386
-292.27,10:47:43.388
-318.35,10:47:43.390
-346.275,10:47:43.392
-376.263,10:47:43.394
-408.594,10:47:43.396
-441.813,10:47:43.398
-474.331,10:47:43.400
-505.461,10:47:43.402
-534.28,10:47:43.404
-559.544,10:47:43.406
-580.454,10:47:43.408
-595.521,10:47:43.410
-603.283,10:47:43.412
-604.671,10:47:43.414
-600.851,10:47:43.416
-592.332,10:47:43.417
-579.974,10:47:43.419
-564.398,10:47:43.421
-545.983,10:47:43.423
-526.065,10:47:43.425
-506.129,10:47:43.427
-486.014,10:47:43.429
-465.546,10:47:43.431
-444.96,10:47:43.433
-424.225,10:47:43.435
-403.877,10:47:43.437
-384.576,10:47:43.439
-366.275,10:47:43.441
-348.825,10:47:43.443
-332.675,10:47:43.445
-318.112,10:47:43.447
-305.238,10:47:43.449
-294.27,10:47:43.451
-285.004,10:47:43.453
-277.13,10:47:43.455
-270.559,10:47:43.457
-265.108,10:47:43.458
-260.461,10:47:43.460
-256.41,10:47:43.462
-252.768,10:47:43.464
-249.31,10:47:43.466
-245.925,10:47:43.468
-242.515,10:47:43.470
-238.962,10:47:43.472
-235.236,10:47:43.474
-231.332,10:47:43.476
-227.246,10:47:43.478
-223.009,10:47:43.480
-218.656,10:47:43.482
-214.238,10:47:43.484
-209.838,10:47:43.486
-205.553,10:47:43.488
-201.485,10:47:43.490
-197.74,10:47:43.492
-194.382,10:47:43.494
-191.436,10:47:43.496
-188.927,10:47:43.498
-186.86,10:47:43.500
-185.232,10:47:43.501
-184.028,10:47:43.503
-183.21,10:47:43.505
-182.724,10:47:43.507
-182.534,10:47:43.509
-182.606,10:47:43.511
-182.909,10:47:43.513
-183.404,10:47:43.515
-184.042,10:47:43.517
-184.768,10:47:43.519
-185.53,10:47:43.521
-186.276,10:47:43.523
-186.961,10:47:43.525
-187.545,10:47:43.527
-187.99,10:47:43.529
-188.268,10:47:43.531
-188.357,10:47:43.533
-188.236,10:47:43.535
-187.894,10:47:43.537
-187.321,10:47:43.539
-186.506,10:47:43.541
-185.433,10:47:43.542
-184.09,10:47:43.544
-182.464,10:47:43.546
-180.545,10:47:43.548
-178.326,10:47:43.550
-175.801,10:47:43.552
-172.97,10:47:43.554
-169.833,10:47:43.556
-166.398,10:47:43.558
-162.677,10:47:43.560
-158.682,10:47:43.562
-154.43,10:47:43.564
-149.935,10:47:43.566
-145.218,10:47:43.568
-140.298,10:47:43.570
-135.196,10:47:43.572
-129.936,10:47:43.574
-124.543,10:47:43.576
-119.044,10:47:43.578
-113.467,10:47:43.580
-107.845,10:47:43.582
-102.209,10:47:43.583
-96.592,10:47:43.585
-91.028,10:47:43.587
-85.551,10:47:43.589
-80.194,10:47:43.591
-74.99,10:47:43.593
-69.974,10:47:43.595
-65.178,10:47:43.597
-60.634,10:47:43.599
-56.374,10:47:43.601
-52.431,10:47:43.603
-48.836,10:47:43.605
-45.618,10:47:43.607
-42.807,10:47:43.609
-40.429,10:47:43.611
-38.509,10:47:43.613
-37.072,10:47:43.615
-36.138,10:47:43.617
-35.726,10:47:43.619
-35.85,10:47:43.621
-36.525,10:47:43.623
-37.761,10:47:43.625
-39.565,10:47:43.626
-41.944,10:47:43.628
-44.9,10:47:43.630
-48.433,10:47:43.632
-52.541,10:47:43.634
-57.218,10:47:43.636
-62.456,10:47:43.638
-68.246,10:47:43.640
-74.573,10:47:43.642
-81.422,10:47:43.644
-88.774,10:47:43.646
-96.608,10:47:43.648
-104.901,10:47:43.650
-113.628,10:47:43.652
-122.762,10:47:43.654
-132.274,10:47:43.656
-142.133,10:47:43.658
-152.308,10:47:43.660
-162.766,10:47:43.662
-173.472,10:47:43.664
-184.392,10:47:43.666
-195.491,10:47:43.667
-206.733,10:47:43.669
-218.081,10:47:43.671
-229.501,10:47:43.673
-240.958,10:47:43.675
-252.417,10:47:43.677
-263.845,10:47:43.679
-275.208,10:47:43.681
-286.474,10:47:43.683
-297.613,10:47:43.685
-308.597,10:47:43.687
-319.396,10:47:43.689
-329.984,10:47:43.691
-340.338,10:47:43.693
-350.434,10:47:43.695
-360.253,10:47:43.697
-369.775,10:47:43.699
-378.984,10:47:43.701
-387.866,10:47:43.703
-396.41,10:47:43.705
-404.604,10:47:43.707
-412.443,10:47:43.708
-419.919,10:47:43.710
-427.032,10:47:43.712
-433.779,10:47:43.714
-440.161,10:47:43.716
-446.183,10:47:43.718
-451.849,10:47:43.720
-457.165,10:47:43.722
-462.142,10:47:43.724
-466.787,10:47:43.726
-471.113,10:47:43.728
-475.132,10:47:43.730
-478.857,10:47:43.732
-482.301,10:47:43.734
-485.479,10:47:43.736
-488.405,10:47:43.738
-491.095,10:47:43.740
-493.565,10:47:43.742
-495.83,10:47:43.744
-497.905,10:47:43.746
-499.807,10:47:43.748
-501.55,10:47:43.750
-503.15,10:47:43.751
-504.622,10:47:43.753
-505.979,10:47:43.755
-507.235,10:47:43.757
-508.402,10:47:43.759
-509.492,10:47:43.761
-510.517,10:47:43.763
-511.486,10:47:43.765
-512.408,10:47:43.767
-513.293,10:47:43.769
-514.146,10:47:43.771
-514.975,10:47:43.773
-515.785,10:47:43.775
-516.579,10:47:43.777
-517.362,10:47:43.779
-518.134,10:47:43.781
-518.898,10:47:43.783
-519.653,10:47:43.785
-520.399,10:47:43.787
-521.136,10:47:43.789
-521.862,10:47:43.791
-522.575,10:47:43.792
-523.273,10:47:43.794
-523.954,10:47:43.796
-524.615,10:47:43.798
-525.254,10:47:43.800
-525.866,10:47:43.802
-526.451,10:47:43.804
-527.003,10:47:43.806
-527.52,10:47:43.808
-527.999,10:47:43.810
-528.438,10:47:43.812
-528.832,10:47:43.814
-529.18,10:47:43.816
-529.48,10:47:43.818
-529.73,10:47:43.820
-529.928,10:47:43.822
-530.073,10:47:43.824
-530.165,10:47:43.826
-530.203,10:47:43.828
-530.188,10:47:43.830
-530.12,10:47:43.832
-530,10:47:43.833
-529.83,10:47:43.835
-529.611,10:47:43.837
-529.346,10:47:43.839
-529.037,10:47:43.841
-528.688,10:47:43.843
-528.303,10:47:43.845
-527.884,10:47:43.847
-527.436,10:47:43.849
-526.963,10:47:43.851
-526.467,10:47:43.853
-525.954,10:47:43.855
-525.426,10:47:43.857
-524.887,10:47:43.859
-524.341,10:47:43.861
-523.791,10:47:43.863
-523.24,10:47:43.865
-522.69,10:47:43.867
-522.146,10:47:43.869
-521.609,10:47:43.871
-521.082,10:47:43.873
-520.567,10:47:43.875
-520.066,10:47:43.876
-519.579,10:47:43.878
-519.108,10:47:43.880
-518.654,10:47:43.882
-518.215,10:47:43.884
-517.791,10:47:43.886
-517.381,10:47:43.888
-516.983,10:47:43.890
-516.595,10:47:43.892
-516.214,10:47:43.894
-515.837,10:47:43.896
-515.46,10:47:43.898
-515.078,10:47:43.900
-514.686,10:47:43.902
-514.28,10:47:43.904
-513.853,10:47:43.906
-513.4,10:47:43.908
-512.915,10:47:43.910
-512.391,10:47:43.912
-511.822,10:47:43.914
-511.201,10:47:43.916
-510.524,10:47:43.917
-509.783,10:47:43.919
-508.972,10:47:43.921
-508.085,10:47:43.923
-507.116,10:47:43.925
-506.061,10:47:43.927
-504.911,10:47:43.929
-503.664,10:47:43.931
-502.312,10:47:43.933
-500.851,10:47:43.935
-499.276,10:47:43.937
-497.582,10:47:43.939
-495.766,10:47:43.941
-493.824,10:47:43.943
-491.754,10:47:43.945
-489.551,10:47:43.947
-487.216,10:47:43.949
-484.747,10:47:43.951
-482.143,10:47:43.953
-479.405,10:47:43.955
-476.534,10:47:43.957
-473.532,10:47:43.958
-470.401,10:47:43.960
-467.145,10:47:43.962
-463.768,10:47:43.964
-460.273,10:47:43.966
-456.666,10:47:43.968
-452.953,10:47:43.970
-449.138,10:47:43.972
-445.228,10:47:43.974
-441.23,10:47:43.976
-437.149,10:47:43.978
-432.993,10:47:43.980
-428.767,10:47:43.982
-424.479,10:47:43.984
-420.135,10:47:43.986
-415.742,10:47:43.988
-411.307,10:47:43.990
-406.837,10:47:43.992
-402.338,10:47:43.994
-397.818,10:47:43.996
-393.282,10:47:43.998
-388.739,10:47:44.000
-384.192,10:47:44.001
-379.65,10:47:44.003
-375.117,10:47:44.005
-370.598,10:47:44.007
-366.099,10:47:44.009
-361.624,10:47:44.011
-357.175,10:47:44.013
-352.756,10:47:44.015
-348.368,10:47:44.017
-344.014,10:47:44.019
-339.694,10:47:44.021
-335.407,10:47:44.023
-331.153,10:47:44.025
-326.931,10:47:44.027
-322.738,10:47:44.029
-318.571,10:47:44.031
-314.429,10:47:44.033
-310.308,10:47:44.035
-306.204,10:47:44.037
-302.114,10:47:44.039
-298.033,10:47:44.041
-293.957,10:47:44.042
-289.882,10:47:44.044
-285.803,10:47:44.046
-281.716,10:47:44.048
-277.617,10:47:44.050
-273.5,10:47:44.052
-269.36,10:47:44.054
-265.193,10:47:44.056
-260.994,10:47:44.058
-256.759,10:47:44.060
-252.482,10:47:44.062
-248.159,10:47:44.064
-243.784,10:47:44.066
-239.355,10:47:44.068
-234.865,10:47:44.070
-230.312,10:47:44.072
-225.691,10:47:44.074
-220.999,10:47:44.076
-216.234,10:47:44.078
-211.395,10:47:44.080
-206.478,10:47:44.082
-201.485,10:47:44.083
-196.415,10:47:44.085
-191.268,10:47:44.087
-186.044,10:47:44.089
-180.747,10:47:44.091
-175.375,10:47:44.093
-169.932,10:47:44.095
-164.419,10:47:44.097
-158.837,10:47:44.099
-153.189,10:47:44.101
-147.476,10:47:44.103
-141.701,10:47:44.105
-135.867,10:47:44.107
-129.976,10:47:44.109
-124.031,10:47:44.111
-118.036,10:47:44.113
-111.992,10:47:44.115
-105.904,10:47:44.117
-99.773,10:47:44.119
-93.604,10:47:44.121
-87.398,10:47:44.123
-81.16,10:47:44.125
-74.892,10:47:44.126
-68.6,10:47:44.128
-62.288,10:47:44.130
-55.961,10:47:44.132
-49.624,10:47:44.134
-43.281,10:47:44.136
-36.937,10:47:44.138
-30.597,10:47:44.140
-24.263,10:47:44.142
-17.939,10:47:44.144
-11.627,10:47:44.146
-5.329,10:47:44.148
0.952,10:47:44.150
7.214,10:47:44.152
13.453,10:47:44.154
19.667,10:47:44.156
25.851,10:47:44.158
32,10:47:44.160
38.109,10:47:44.162
44.173,10:47:44.164
50.185,10:47:44.166
56.143,10:47:44.167
62.042,10:47:44.169
67.876,10:47:44.171
73.643,10:47:44.173
79.336,10:47:44.175
84.952,10:47:44.177
90.485,10:47:44.179
95.93,10:47:44.181
101.281,10:47:44.183
106.531,10:47:44.185
111.675,10:47:44.187
116.71,10:47:44.189
121.633,10:47:44.191
126.444,10:47:44.193
131.143,10:47:44.195
135.732,10:47:44.197
140.211,10:47:44.199
144.582,10:47:44.201
148.847,10:47:44.203
153.005,10:47:44.205
157.056,10:47:44.207
160.998,10:47:44.208
164.83,10:47:44.210
168.553,10:47:44.212
172.17,10:47:44.214
175.683,10:47:44.216
179.098,10:47:44.218
182.421,10:47:44.220
185.665,10:47:44.222
188.846,10:47:44.224
191.976,10:47:44.226
195.067,10:47:44.228
198.129,10:47:44.230
201.176,10:47:44.232
204.217,10:47:44.234
207.261,10:47:44.236
210.311,10:47:44.238
213.37,10:47:44.240
216.444,10:47:44.242
219.547,10:47:44.244
222.696,10:47:44.246
225.909,10:47:44.248
229.209,10:47:44.250
232.611,10:47:44.251
236.135,10:47:44.253
239.8,10:47:44.255
243.615,10:47:44.257
247.587,10:47:44.259
251.711,10:47:44.261
255.969,10:47:44.263
260.354,10:47:44.265
264.876,10:47:44.267
269.554,10:47:44.269
274.425,10:47:44.271
279.513,10:47:44.273
284.81,10:47:44.275
290.311,10:47:44.277
296.011,10:47:44.279
301.864,10:47:44.281
307.809,10:47:44.283
313.74,10:47:44.285
319.497,10:47:44.287
324.974,10:47:44.289
330.108,10:47:44.291
334.867,10:47:44.292
339.274,10:47:44.294
343.344,10:47:44.296
347.062,10:47:44.298
350.434,10:47:44.300
353.461,10:47:44.302
356.128,10:47:44.304
358.47,10:47:44.306
360.504,10:47:44.308
362.223,10:47:44.310
363.716,10:47:44.312
365.139,10:47:44.314
366.741,10:47:44.316
368.908,10:47:44.318
371.933,10:47:44.320
375.977,10:47:44.322
381.134,10:47:44.324
387.368,10:47:44.326
394.611,10:47:44.328
402.812,10:47:44.330
411.819,10:47:44.332
421.431,10:47:44.333
431.443,10:47:44.335
441.533,10:47:44.337
451.433,10:47:44.339
460.956,10:47:44.341
469.785,10:47:44.343
477.603,10:47:44.345
483.879,10:47:44.347
487.708,10:47:44.349
488.596,10:47:44.351
486.529,10:47:44.353
481.537,10:47:44.355
473.943,10:47:44.357
463.755,10:47:44.359
450.342,10:47:44.361
433.745,10:47:44.363
414.729,10:47:44.365
393.333,10:47:44.367
369.279,10:47:44.369
342.193,10:47:44.371
311.093,10:47:44.373
276.558,10:47:44.375
241.002,10:47:44.376
206.032,10:47:44.378
172.654,10:47:44.380
142.463,10:47:44.382
116.884,10:47:44.384
97.68,10:47:44.386
87.469,10:47:44.388
86.611,10:47:44.390
93.031,10:47:44.392
105.284,10:47:44.394
122.241,10:47:44.396
142.655,10:47:44.398
165.789,10:47:44.400
190.241,10:47:44.402
213.59,10:47:44.404
235.006,10:47:44.406
255.395,10:47:44.408
275.23,10:47:44.410
294.781,10:47:44.412
314.042,10:47:44.414
332.342,10:47:44.416
349.546,10:47:44.417
366.228,10:47:44.419
382.339,10:47:44.421
397.22,10:47:44.423
410.459,10:47:44.425
421.711,10:47:44.427
430.916,10:47:44.429
438.515,10:47:44.431
444.78,10:47:44.433
449.801,10:47:44.435
453.849,10:47:44.437
457.208,10:47:44.439
460.096,10:47:44.441
462.782,10:47:44.443
465.441,10:47:44.445
468.112,10:47:44.447
470.858,10:47:44.449
473.714,10:47:44.451
476.667,10:47:44.453
479.739,10:47:44.455
482.926,10:47:44.457
486.18,10:47:44.458
489.445,10:47:44.460
492.629,10:47:44.462
495.621,10:47:44.464
498.306,10:47:44.466
500.565,10:47:44.468
502.318,10:47:44.470
503.527,10:47:44.472
504.17,10:47:44.474
504.241,10:47:44.476
503.749,10:47:44.478
502.715,10:47:44.480
501.184,10:47:44.482
499.218,10:47:44.484
496.857,10:47:44.486
494.133,10:47:44.488
491.079,10:47:44.490
487.731,10:47:44.492
484.144,10:47:44.494
480.376,10:47:44.496
476.487,10:47:44.498
472.535,10:47:44.500
468.573,10:47:44.501
464.648,10:47:44.503
460.805,10:47:44.505
457.082,10:47:44.507
453.51,10:47:44.509
450.115,10:47:44.511
446.918,10:47:44.513
443.933,10:47:44.515
441.183,10:47:44.517
438.689,10:47:44.519
436.476,10:47:44.521
434.566,10:47:44.523
432.978,10:47:44.525
431.727,10:47:44.527
430.828,10:47:44.529
430.293,10:47:44.531
430.129,10:47:44.533
430.336,10:47:44.535
430.911,10:47:44.537
431.844,10:47:44.539
433.127,10:47:44.541
434.747,10:47:44.542
436.691,10:47:44.544
438.942,10:47:44.546
441.479,10:47:44.548
444.283,10:47:44.550
447.33,10:47:44.552
450.594,10:47:44.554
454.047,10:47:44.556
457.66,10:47:44.558
461.399,10:47:44.560
465.231,10:47:44.562
469.122,10:47:44.564
473.036,10:47:44.566
476.938,10:47:44.568
480.792,10:47:44.570
484.562,10:47:44.572
488.212,10:47:44.574
491.706,10:47:44.576
495.008,10:47:44.578
498.081,10:47:44.580
500.891,10:47:44.582
503.401,10:47:44.583
505.578,10:47:44.585
507.387,10:47:44.587
508.799,10:47:44.589
509.781,10:47:44.591
510.308,10:47:44.593
510.352,10:47:44.595
509.892,10:47:44.597
508.908,10:47:44.599
507.382,10:47:44.601
505.3,10:47:44.603
502.651,10:47:44.605
499.426,10:47:44.607
495.618,10:47:44.609
491.225,10:47:44.611
486.248,10:47:44.613
480.688,10:47:44.615
474.551,10:47:44.617
467.847,10:47:44.619
460.587,10:47:44.621
452.785,10:47:44.623
444.458,10:47:44.625
435.625,10:47:44.626
426.307,10:47:44.628
416.529,10:47:44.630
406.315,10:47:44.632
395.691,10:47:44.634
384.688,10:47:44.636
373.335,10:47:44.638
361.665,10:47:44.640
349.709,10:47:44.642
337.504,10:47:44.644
325.083,10:47:44.646
312.483,10:47:44.648
299.741,10:47:44.650
286.894,10:47:44.652
273.978,10:47:44.654
261.032,10:47:44.656
248.09,10:47:44.658
235.192,10:47:44.660
222.371,10:47:44.662
209.663,10:47:44.664
197.103,10:47:44.666
184.723,10:47:44.667
172.556,10:47:44.669
160.632,10:47:44.671
148.98,10:47:44.673
137.626,10:47:44.675
126.597,10:47:44.677
115.916,10:47:44.679
105.603,10:47:44.681
95.679,10:47:44.683
86.161,10:47:44.685
77.063,10:47:44.687
68.401,10:47:44.689
60.183,10:47:44.691
52.421,10:47:44.693
45.121,10:47:44.695
38.289,10:47:44.697
31.929,10:47:44.699
26.041,10:47:44.701
20.626,10:47:44.703
15.68,10:47:44.705
11.2,10:47:44.707
7.179,10:47:44.708
3.61,10:47:44.710
0.482,10:47:44.712
-2.216,10:47:44.714
-4.496,10:47:44.716
-6.373,10:47:44.718
-7.863,10:47:44.720
-8.982,10:47:44.722
-9.751,10:47:44.724
-10.187,10:47:44.726
-10.313,10:47:44.728
-10.15,10:47:44.730
-9.72,10:47:44.732
-9.048,10:47:44.734
-8.157,10:47:44.736
-7.071,10:47:44.738
-5.815,10:47:44.740
-4.414,10:47:44.742
-2.893,10:47:44.744
-1.276,10:47:44.746
0.413,10:47:44.748
2.148,10:47:44.750
3.907,10:47:44.751
5.665,10:47:44.753
7.4,10:47:44.755
9.089,10:47:44.757
10.71,10:47:44.759
12.243,10:47:44.761
13.667,10:47:44.763
14.964,10:47:44.765
16.115,10:47:44.767
17.104,10:47:44.769
17.916,10:47:44.771
18.536,10:47:44.773
18.952,10:47:44.775
19.152,10:47:44.777
19.127,10:47:44.779
18.868,10:47:44.781
18.368,10:47:44.783
17.623,10:47:44.785
16.629,10:47:44.787
15.384,10:47:44.789
13.888,10:47:44.791
12.143,10:47:44.792
10.154,10:47:44.794
7.925,10:47:44.796
5.463,10:47:44.798
2.777,10:47:44.800
-0.124,10:47:44.802
-3.228,10:47:44.804
-6.524,10:47:44.806
-9.997,10:47:44.808
-13.634,10:47:44.810
-17.418,10:47:44.812
-21.334,10:47:44.814
-25.364,10:47:44.816
-29.49,10:47:44.818
-33.693,10:47:44.820
-37.957,10:47:44.822
-42.26,10:47:44.824
-46.586,10:47:44.826
-50.914,10:47:44.828
-55.227,10:47:44.830
-59.507,10:47:44.832
-63.735,10:47:44.833
-67.896,10:47:44.835
-71.971,10:47:44.837
-75.946,10:47:44.839
-79.805,10:47:44.841
-83.534,10:47:44.843
-87.12,10:47:44.845
-90.55,10:47:44.847
-93.815,10:47:44.849
-96.904,10:47:44.851
-99.81,10:47:44.853
-102.526,10:47:44.855
-105.047,10:47:44.857
-107.37,10:47:44.859
-109.492,10:47:44.861
-111.413,10:47:44.863
-113.133,10:47:44.865
-114.656,10:47:44.867
-115.984,10:47:44.869
-117.122,10:47:44.871
-118.077,10:47:44.873
-118.855,10:47:44.875
-119.466,10:47:44.876
-119.918,10:47:44.878
-120.221,10:47:44.880
-120.388,10:47:44.882
-120.428,10:47:44.884
-120.353,10:47:44.886
-120.176,10:47:44.888
-119.908,10:47:44.890
-119.561,10:47:44.892
-119.147,10:47:44.894
-118.679,10:47:44.896
-118.166,10:47:44.898
-117.621,10:47:44.900
-117.054,10:47:44.902
-116.476,10:47:44.904
-115.898,10:47:44.906
-115.327,10:47:44.908
-114.774,10:47:44.910
-114.246,10:47:44.912
-113.749,10:47:44.914
-113.291,10:47:44.916
-112.875,10:47:44.917
-112.507,10:47:44.919
-112.191,10:47:44.921
-111.927,10:47:44.923
-111.717,10:47:44.925
-111.563,10:47:44.927
-111.463,10:47:44.929
-111.416,10:47:44.931
-111.42,10:47:44.933
-111.471,10:47:44.935
-111.566,10:47:44.937
-111.699,10:47:44.939
-111.867,10:47:44.941
-112.062,10:47:44.943
-112.281,10:47:44.945
-112.517,10:47:44.947
-112.763,10:47:44.949
-113.016,10:47:44.951
-113.268,10:47:44.953
-113.515,10:47:44.955
-113.752,10:47:44.957
-113.975,10:47:44.958
-114.18,10:47:44.960
-114.363,10:47:44.962
-114.521,10:47:44.964
-114.653,10:47:44.966
-114.756,10:47:44.968
-114.829,10:47:44.970
-114.873,10:47:44.972
-114.887,10:47:44.974
-114.871,10:47:44.976
-114.829,10:47:44.978
-114.762,10:47:44.980
-114.674,10:47:44.982
-114.568,10:47:44.984
-114.448,10:47:44.986
-114.321,10:47:44.988
-114.192,10:47:44.990
-114.068,10:47:44.992
-113.956,10:47:44.994
-113.863,10:47:44.996
-113.797,10:47:44.998
-113.765,10:47:45.000
-113.777,10:47:45.001
-113.839,10:47:45.003
-113.959,10:47:45.005
-114.145,10:47:45.007
-114.404,10:47:45.009
-114.742,10:47:45.011
-115.167,10:47:45.013
-115.683,10:47:45.015
-116.297,10:47:45.017
-117.012,10:47:45.019
-117.831,10:47:45.021
-118.757,10:47:45.023
-119.79,10:47:45.025
-120.93,10:47:45.027
-122.177,10:47:45.029
-123.528,10:47:45.031
-124.982,10:47:45.033
-126.535,10:47:45.035
-128.183,10:47:45.037
-129.922,10:47:45.039
-131.746,10:47:45.041
-133.649,10:47:45.042
-135.623,10:47:45.044
-137.658,10:47:45.046
-139.744,10:47:45.048
-141.869,10:47:45.050
-144.023,10:47:45.052
-146.192,10:47:45.054
-148.363,10:47:45.056
-150.524,10:47:45.058
-152.663,10:47:45.060
-154.767,10:47:45.062
-156.825,10:47:45.064
-158.826,10:47:45.066
-160.76,10:47:45.068
-162.615,10:47:45.070
-164.38,10:47:45.072
