이름,최영우
생년월일,2001. 7. 5.
기록된 날짜,2023-07-10 23:18:38 +0900
분류,동리듬
증상,
소프트웨어 버전,1.90
기기,"Watch6,6"
샘플률,512헤르츠
유도,유도 I
단위,µV
60.844,23:18:38.000
38.027,23:18:38.001
31.552,23:18:38.003
42.5,23:18:38.005
62.386,23:18:38.007
84.091,23:18:38.009
99.684,23:18:38.011
106.544,23:18:38.013
109.49,23:18:38.015
111.008,23:18:38.017
112.246,23:18:38.019
113.479,23:18:38.021
112.549,23:18:38.023
108.969,23:18:38.025
103.944,23:18:38.027
98.125,23:18:38.029
92.099,23:18:38.031
86.308,23:18:38.033
80.796,23:18:38.035
75.671,23:18:38.037
71.092,23:18:38.039
66.872,23:18:38.041
62.515,23:18:38.042
57.762,23:18:38.044
52.578,23:18:38.046
46.968,23:18:38.048
41.04,23:18:38.050
34.817,23:18:38.052
28.211,23:18:38.054
21.233,23:18:38.056
13.975,23:18:38.058
6.488,23:18:38.060
-1.193,23:18:38.062
-9.068,23:18:38.064
-17.19,23:18:38.066
-25.57,23:18:38.068
-34.185,23:18:38.070
-43.004,23:18:38.072
-51.983,23:18:38.074
-61.087,23:18:38.076
-70.291,23:18:38.078
-79.561,23:18:38.080
-88.858,23:18:38.082
-98.138,23:18:38.083
-107.346,23:18:38.085
-116.432,23:18:38.087
-125.348,23:18:38.089
-134.044,23:18:38.091
-142.471,23:18:38.093
-150.578,23:18:38.095
-158.309,23:18:38.097
-165.615,23:18:38.099
-172.453,23:18:38.101
-178.783,23:18:38.103
-184.573,23:18:38.105
-189.789,23:18:38.107
-194.399,23:18:38.109
-198.372,23:18:38.111
-201.682,23:18:38.113
-204.307,23:18:38.115
-206.229,23:18:38.117
-207.435,23:18:38.119
-207.914,23:18:38.121
-207.658,23:18:38.123
-206.667,23:18:38.125
-204.941,23:18:38.126
-202.491,23:18:38.128
-199.325,23:18:38.130
-195.46,23:18:38.132
-190.913,23:18:38.134
-185.707,23:18:38.136
-179.868,23:18:38.138
-173.426,23:18:38.140
-166.414,23:18:38.142
-158.868,23:18:38.144
-150.828,23:18:38.146
-142.335,23:18:38.148
-133.431,23:18:38.150
-124.162,23:18:38.152
-114.573,23:18:38.154
-104.712,23:18:38.156
-94.624,23:18:38.158
-84.357,23:18:38.160
-73.959,23:18:38.162
-63.473,23:18:38.164
-52.947,23:18:38.166
-42.423,23:18:38.167
-31.942,23:18:38.169
-21.545,23:18:38.171
-11.268,23:18:38.173
-1.146,23:18:38.175
8.788,23:18:38.177
18.506,23:18:38.179
27.983,23:18:38.181
37.194,23:18:38.183
46.121,23:18:38.185
54.747,23:18:38.187
63.059,23:18:38.189
71.048,23:18:38.191
78.706,23:18:38.193
86.031,23:18:38.195
93.023,23:18:38.197
99.684,23:18:38.199
106.021,23:18:38.201
112.042,23:18:38.203
117.758,23:18:38.205
123.184,23:18:38.207
128.335,23:18:38.208
133.227,23:18:38.210
137.881,23:18:38.212
142.317,23:18:38.214
146.557,23:18:38.216
150.622,23:18:38.218
154.534,23:18:38.220
158.315,23:18:38.222
161.986,23:18:38.224
165.57,23:18:38.226
169.087,23:18:38.228
172.559,23:18:38.230
176.001,23:18:38.232
179.434,23:18:38.234
182.873,23:18:38.236
186.335,23:18:38.238
189.833,23:18:38.240
193.377,23:18:38.242
196.974,23:18:38.244
200.63,23:18:38.246
204.347,23:18:38.248
208.132,23:18:38.250
211.987,23:18:38.251
215.913,23:18:38.253
219.909,23:18:38.255
223.971,23:18:38.257
228.092,23:18:38.259
232.267,23:18:38.261
236.488,23:18:38.263
240.743,23:18:38.265
245.016,23:18:38.267
249.291,23:18:38.269
253.547,23:18:38.271
257.773,23:18:38.273
261.955,23:18:38.275
266.084,23:18:38.277
270.153,23:18:38.279
274.13,23:18:38.281
277.985,23:18:38.283
281.688,23:18:38.285
285.204,23:18:38.287
288.533,23:18:38.289
291.674,23:18:38.291
294.599,23:18:38.292
297.294,23:18:38.294
299.758,23:18:38.296
301.976,23:18:38.298
304.014,23:18:38.300
305.929,23:18:38.302
307.602,23:18:38.304
308.949,23:18:38.306
309.903,23:18:38.308
310.342,23:18:38.310
310.336,23:18:38.312
309.969,23:18:38.314
309.094,23:18:38.316
307.637,23:18:38.318
305.853,23:18:38.320
303.909,23:18:38.322
302.026,23:18:38.324
300.575,23:18:38.326
299.51,23:18:38.328
298.707,23:18:38.330
298.222,23:18:38.332
297.903,23:18:38.333
297.216,23:18:38.335
296.598,23:18:38.337
297.363,23:18:38.339
299.856,23:18:38.341
303.393,23:18:38.343
304.183,23:18:38.345
296.043,23:18:38.347
276.254,23:18:38.349
248.08,23:18:38.351
220.56,23:18:38.353
204.486,23:18:38.355
205.149,23:18:38.357
218.662,23:18:38.359
234.514,23:18:38.361
242.822,23:18:38.363
239.045,23:18:38.365
225.342,23:18:38.367
208.413,23:18:38.369
193.151,23:18:38.371
181.095,23:18:38.373
171.649,23:18:38.375
162.637,23:18:38.376
153.01,23:18:38.378
143.002,23:18:38.380
132.75,23:18:38.382
122.424,23:18:38.384
111.989,23:18:38.386
101.184,23:18:38.388
89.928,23:18:38.390
78.265,23:18:38.392
66.179,23:18:38.394
53.653,23:18:38.396
40.75,23:18:38.398
27.55,23:18:38.400
14.144,23:18:38.402
0.613,23:18:38.404
-13.024,23:18:38.406
-26.768,23:18:38.408
-40.595,23:18:38.410
-54.473,23:18:38.412
-68.369,23:18:38.414
-82.258,23:18:38.416
-96.122,23:18:38.417
-109.942,23:18:38.419
-123.694,23:18:38.421
-137.35,23:18:38.423
-150.888,23:18:38.425
-164.291,23:18:38.427
-177.541,23:18:38.429
-190.618,23:18:38.431
-203.498,23:18:38.433
-216.147,23:18:38.435
-228.522,23:18:38.437
-240.583,23:18:38.439
-252.283,23:18:38.441
-263.575,23:18:38.443
-274.417,23:18:38.445
-284.742,23:18:38.447
-294.464,23:18:38.449
-303.479,23:18:38.451
-311.67,23:18:38.453
-318.947,23:18:38.455
-325.263,23:18:38.457
-330.602,23:18:38.458
-334.961,23:18:38.460
-338.363,23:18:38.462
-340.89,23:18:38.464
-342.724,23:18:38.466
-344.099,23:18:38.468
-345.152,23:18:38.470
-345.878,23:18:38.472
-346.063,23:18:38.474
-345.405,23:18:38.476
-343.705,23:18:38.478
-340.701,23:18:38.480
-336.12,23:18:38.482
-329.953,23:18:38.484
-322.444,23:18:38.486
-314.122,23:18:38.488
-305.399,23:18:38.490
-296.046,23:18:38.492
-285.686,23:18:38.494
-275.509,23:18:38.496
-270.128,23:18:38.498
-275.684,23:18:38.500
-296.884,23:18:38.501
-332.452,23:18:38.503
-370.313,23:18:38.505
-395.334,23:18:38.507
-395.785,23:18:38.509
-367.827,23:18:38.511
-323.723,23:18:38.513
-279.653,23:18:38.515
-246.746,23:18:38.517
-231.273,23:18:38.519
-225.028,23:18:38.521
-215.474,23:18:38.523
-195.513,23:18:38.525
-160.517,23:18:38.527
-115.749,23:18:38.529
-70.49,23:18:38.531
-29.767,23:18:38.533
5.677,23:18:38.535
41.742,23:18:38.537
82.26,23:18:38.539
123.893,23:18:38.541
154.938,23:18:38.542
157.417,23:18:38.544
121.705,23:18:38.546
50.01,23:18:38.548
-47.891,23:18:38.550
-157.164,23:18:38.552
-265.929,23:18:38.554
-369.203,23:18:38.556
-459.861,23:18:38.558
-525.803,23:18:38.560
-560.055,23:18:38.562
-557.312,23:18:38.564
-520.187,23:18:38.566
-467.003,23:18:38.568
-410.911,23:18:38.570
-361.097,23:18:38.572
-323.587,23:18:38.574
-289.968,23:18:38.576
-255.403,23:18:38.578
-219.603,23:18:38.580
-181.643,23:18:38.582
-148.285,23:18:38.583
-123.446,23:18:38.585
-106.316,23:18:38.587
-96.82,23:18:38.589
-91.888,23:18:38.591
-88.836,23:18:38.593
-87.216,23:18:38.595
-84.843,23:18:38.597
-78.38,23:18:38.599
-66.451,23:18:38.601
-50.014,23:18:38.603
-33.536,23:18:38.605
-25.646,23:18:38.607
-32.087,23:18:38.609
-48.947,23:18:38.611
-65.219,23:18:38.613
-66.438,23:18:38.615
-41.335,23:18:38.617
4.611,23:18:38.619
53.89,23:18:38.621
89.461,23:18:38.623
97.609,23:18:38.625
81.331,23:18:38.626
56.974,23:18:38.628
36.994,23:18:38.630
30.765,23:18:38.632
38.281,23:18:38.634
50.455,23:18:38.636
62.171,23:18:38.638
70.713,23:18:38.640
75.55,23:18:38.642
79.55,23:18:38.644
83.696,23:18:38.646
87.588,23:18:38.648
91.228,23:18:38.650
94.255,23:18:38.652
96.593,23:18:38.654
98.621,23:18:38.656
100.488,23:18:38.658
102.206,23:18:38.660
103.888,23:18:38.662
105.651,23:18:38.664
107.542,23:18:38.666
109.592,23:18:38.667
111.828,23:18:38.669
114.236,23:18:38.671
116.835,23:18:38.673
119.712,23:18:38.675
122.936,23:18:38.677
126.523,23:18:38.679
130.507,23:18:38.681
134.921,23:18:38.683
139.788,23:18:38.685
145.182,23:18:38.687
151.2,23:18:38.689
157.846,23:18:38.691
165.094,23:18:38.693
173.1,23:18:38.695
182.042,23:18:38.697
191.828,23:18:38.699
202.487,23:18:38.701
214.077,23:18:38.703
226.247,23:18:38.705
239.946,23:18:38.707
256.082,23:18:38.708
273.264,23:18:38.710
291.039,23:18:38.712
306.902,23:18:38.714
317.844,23:18:38.716
327.038,23:18:38.718
336.59,23:18:38.720
349.673,23:18:38.722
370.695,23:18:38.724
395.731,23:18:38.726
421.418,23:18:38.728
445.42,23:18:38.730
463.886,23:18:38.732
479.401,23:18:38.734
494.619,23:18:38.736
510.104,23:18:38.738
527.478,23:18:38.740
545.74,23:18:38.742
563.613,23:18:38.744
581.288,23:18:38.746
598.601,23:18:38.748
615.675,23:18:38.750
632.739,23:18:38.751
649.553,23:18:38.753
665.847,23:18:38.755
681.445,23:18:38.757
696.19,23:18:38.759
709.958,23:18:38.761
722.66,23:18:38.763
734.255,23:18:38.765
744.673,23:18:38.767
753.822,23:18:38.769
761.643,23:18:38.771
768.054,23:18:38.773
772.955,23:18:38.775
776.277,23:18:38.777
777.892,23:18:38.779
777.61,23:18:38.781
775.346,23:18:38.783
771.099,23:18:38.785
764.951,23:18:38.787
757.104,23:18:38.789
747.709,23:18:38.791
736.856,23:18:38.792
724.647,23:18:38.794
711.165,23:18:38.796
696.508,23:18:38.798
680.806,23:18:38.800
664.151,23:18:38.802
646.604,23:18:38.804
628.265,23:18:38.806
609.249,23:18:38.808
589.724,23:18:38.810
569.924,23:18:38.812
550.003,23:18:38.814
530.045,23:18:38.816
510.079,23:18:38.818
490.056,23:18:38.820
469.964,23:18:38.822
449.836,23:18:38.824
429.69,23:18:38.826
409.541,23:18:38.828
389.416,23:18:38.830
369.335,23:18:38.832
349.353,23:18:38.833
329.56,23:18:38.835
310.016,23:18:38.837
290.755,23:18:38.839
271.783,23:18:38.841
253.065,23:18:38.843
234.604,23:18:38.845
216.434,23:18:38.847
198.602,23:18:38.849
181.181,23:18:38.851
164.23,23:18:38.853
147.782,23:18:38.855
131.879,23:18:38.857
116.569,23:18:38.859
101.879,23:18:38.861
87.83,23:18:38.863
74.416,23:18:38.865
61.607,23:18:38.867
49.386,23:18:38.869
37.743,23:18:38.871
26.671,23:18:38.873
16.17,23:18:38.875
6.233,23:18:38.876
-3.162,23:18:38.878
-12.036,23:18:38.880
-20.413,23:18:38.882
-28.318,23:18:38.884
-35.776,23:18:38.886
-42.817,23:18:38.888
-49.476,23:18:38.890
-55.782,23:18:38.892
-61.762,23:18:38.894
-67.437,23:18:38.896
-72.822,23:18:38.898
-77.936,23:18:38.900
-82.8,23:18:38.902
-87.431,23:18:38.904
-91.849,23:18:38.906
-96.072,23:18:38.908
-100.117,23:18:38.910
-104.002,23:18:38.912
-107.746,23:18:38.914
-111.368,23:18:38.916
-114.881,23:18:38.917
-118.3,23:18:38.919
-121.637,23:18:38.921
-124.903,23:18:38.923
-128.108,23:18:38.925
-131.263,23:18:38.927
-134.375,23:18:38.929
-137.453,23:18:38.931
-140.503,23:18:38.933
-143.532,23:18:38.935
-146.547,23:18:38.937
-149.555,23:18:38.939
-152.559,23:18:38.941
-155.567,23:18:38.943
-158.582,23:18:38.945
-161.609,23:18:38.947
-164.653,23:18:38.949
-167.718,23:18:38.951
-170.807,23:18:38.953
-173.925,23:18:38.955
-177.074,23:18:38.957
-180.26,23:18:38.958
-183.486,23:18:38.960
-186.757,23:18:38.962
-190.075,23:18:38.964
-193.446,23:18:38.966
-196.873,23:18:38.968
-200.36,23:18:38.970
-203.91,23:18:38.972
-207.527,23:18:38.974
-211.212,23:18:38.976
-214.966,23:18:38.978
-218.792,23:18:38.980
-222.69,23:18:38.982
-226.661,23:18:38.984
-230.705,23:18:38.986
-234.821,23:18:38.988
-239.008,23:18:38.990
-243.263,23:18:38.992
-247.585,23:18:38.994
-251.968,23:18:38.996
-256.409,23:18:38.998
-260.901,23:18:39.000
-265.437,23:18:39.001
-270.01,23:18:39.003
-274.612,23:18:39.005
-279.235,23:18:39.007
-283.868,23:18:39.009
-288.501,23:18:39.011
-293.122,23:18:39.013
-297.721,23:18:39.015
-302.284,23:18:39.017
-306.799,23:18:39.019
-311.254,23:18:39.021
-315.636,23:18:39.023
-319.931,23:18:39.025
-324.127,23:18:39.027
-328.213,23:18:39.029
-332.177,23:18:39.031
-336.006,23:18:39.033
-339.69,23:18:39.035
-343.219,23:18:39.037
-346.582,23:18:39.039
-349.772,23:18:39.041
-352.778,23:18:39.042
-355.594,23:18:39.044
-358.213,23:18:39.046
-360.631,23:18:39.048
-362.844,23:18:39.050
-364.851,23:18:39.052
-366.653,23:18:39.054
-368.25,23:18:39.056
-369.646,23:18:39.058
-370.845,23:18:39.060
-371.854,23:18:39.062
-372.68,23:18:39.064
-373.332,23:18:39.066
-373.818,23:18:39.068
-374.15,23:18:39.070
-374.343,23:18:39.072
-374.411,23:18:39.074
-374.372,23:18:39.076
-374.245,23:18:39.078
-374.047,23:18:39.080
-373.798,23:18:39.082
-373.52,23:18:39.083
-373.233,23:18:39.085
-372.956,23:18:39.087
-372.709,23:18:39.089
-372.51,23:18:39.091
-372.378,23:18:39.093
-372.333,23:18:39.095
-372.395,23:18:39.097
-372.582,23:18:39.099
-372.912,23:18:39.101
-373.405,23:18:39.103
-374.08,23:18:39.105
-374.957,23:18:39.107
-376.051,23:18:39.109
-377.376,23:18:39.111
-378.938,23:18:39.113
-380.747,23:18:39.115
-382.808,23:18:39.117
-385.124,23:18:39.119
-387.696,23:18:39.121
-390.515,23:18:39.123
-393.573,23:18:39.125
-396.869,23:18:39.126
-400.396,23:18:39.128
-404.149,23:18:39.130
-408.117,23:18:39.132
-412.281,23:18:39.134
-416.619,23:18:39.136
-421.12,23:18:39.138
-425.769,23:18:39.140
-430.538,23:18:39.142
-435.394,23:18:39.144
-440.299,23:18:39.146
-445.218,23:18:39.148
-450.145,23:18:39.150
-455.084,23:18:39.152
-460.022,23:18:39.154
-464.934,23:18:39.156
-469.831,23:18:39.158
-474.718,23:18:39.160
-479.602,23:18:39.162
-484.483,23:18:39.164
-489.296,23:18:39.166
-493.925,23:18:39.167
-498.301,23:18:39.169
-502.403,23:18:39.171
-506.046,23:18:39.173
-509.027,23:18:39.175
-511.428,23:18:39.177
-513.208,23:18:39.179
-514.294,23:18:39.181
-515.016,23:18:39.183
-514.409,23:18:39.185
-511.531,23:18:39.187
-507.673,23:18:39.189
-503.179,23:18:39.191
-500.408,23:18:39.193
-502.28,23:18:39.195
-505.686,23:18:39.197
-508.658,23:18:39.199
-508.265,23:18:39.201
-500.316,23:18:39.203
-488.821,23:18:39.205
-477.263,23:18:39.207
-467.946,23:18:39.208
-464.523,23:18:39.210
-464.197,23:18:39.212
-463.903,23:18:39.214
-462.693,23:18:39.216
-458.818,23:18:39.218
-453.042,23:18:39.220
-446.347,23:18:39.222
-438.689,23:18:39.224
-430.599,23:18:39.226
-422.641,23:18:39.228
-415.636,23:18:39.230
-410.37,23:18:39.232
-407.115,23:18:39.234
-406.152,23:18:39.236
-407.736,23:18:39.238
-411.401,23:18:39.240
-416.155,23:18:39.242
-420.247,23:18:39.244
-421.184,23:18:39.246
-417.153,23:18:39.248
-406.853,23:18:39.250
-388.706,23:18:39.251
-361.324,23:18:39.253
-323.998,23:18:39.255
-276.679,23:18:39.257
-220.606,23:18:39.259
-158.156,23:18:39.261
-92.326,23:18:39.263
-27.126,23:18:39.265
33.011,23:18:39.267
84.713,23:18:39.269
127.966,23:18:39.271
164.66,23:18:39.273
195.956,23:18:39.275
219.538,23:18:39.277
225.662,23:18:39.279
203.859,23:18:39.281
147.366,23:18:39.283
55.231,23:18:39.285
-60.481,23:18:39.287
-183.968,23:18:39.289
-298.621,23:18:39.291
-386.677,23:18:39.292
-442.5,23:18:39.294
-466.91,23:18:39.296
-465.812,23:18:39.298
-452.678,23:18:39.300
-434.163,23:18:39.302
-411.786,23:18:39.304
-385.287,23:18:39.306
-350.358,23:18:39.308
-306.927,23:18:39.310
-258.986,23:18:39.312
-210.403,23:18:39.314
-165.861,23:18:39.316
-128.709,23:18:39.318
-100.268,23:18:39.320
-80.938,23:18:39.322
-70.129,23:18:39.324
-66.525,23:18:39.326
-68.301,23:18:39.328
-73.772,23:18:39.330
-81.281,23:18:39.332
-88.696,23:18:39.333
-94.234,23:18:39.335
-96.877,23:18:39.337
-96.039,23:18:39.339
-91.815,23:18:39.341
-84.958,23:18:39.343
-76.108,23:18:39.345
-66.038,23:18:39.347
-55.941,23:18:39.349
-46.554,23:18:39.351
-38.113,23:18:39.353
-30.828,23:18:39.355
-24.673,23:18:39.357
-19.257,23:18:39.359
-14.124,23:18:39.361
-8.938,23:18:39.363
-3.269,23:18:39.365
3.074,23:18:39.367
9.46,23:18:39.369
16.648,23:18:39.371
26.823,23:18:39.373
39.196,23:18:39.375
52.075,23:18:39.376
61.341,23:18:39.378
58.694,23:18:39.380
45.187,23:18:39.382
28.709,23:18:39.384
18.264,23:18:39.386
28.143,23:18:39.388
58.313,23:18:39.390
95.003,23:18:39.392
126.561,23:18:39.394
138.381,23:18:39.396
128.739,23:18:39.398
111.121,23:18:39.400
94.802,23:18:39.402
88.353,23:18:39.404
93.835,23:18:39.406
103.331,23:18:39.408
112.39,23:18:39.410
118.916,23:18:39.412
121.991,23:18:39.414
124.182,23:18:39.416
126.648,23:18:39.417
128.958,23:18:39.419
131.128,23:18:39.421
132.909,23:18:39.423
134.191,23:18:39.425
135.266,23:18:39.427
136.257,23:18:39.429
137.128,23:18:39.431
137.927,23:18:39.433
138.736,23:18:39.435
139.568,23:18:39.437
140.396,23:18:39.439
141.199,23:18:39.441
141.938,23:18:39.443
142.606,23:18:39.445
143.238,23:18:39.447
143.848,23:18:39.449
144.43,23:18:39.451
144.986,23:18:39.453
145.519,23:18:39.455
146.03,23:18:39.457
146.525,23:18:39.458
147.004,23:18:39.460
147.461,23:18:39.462
147.89,23:18:39.464
148.287,23:18:39.466
148.645,23:18:39.468
148.959,23:18:39.470
149.218,23:18:39.472
149.414,23:18:39.474
149.534,23:18:39.476
149.565,23:18:39.478
149.492,23:18:39.480
149.301,23:18:39.482
148.975,23:18:39.484
148.497,23:18:39.486
147.852,23:18:39.488
147.021,23:18:39.490
145.989,23:18:39.492
144.736,23:18:39.494
143.246,23:18:39.496
141.502,23:18:39.498
139.487,23:18:39.500
137.184,23:18:39.501
134.577,23:18:39.503
131.651,23:18:39.505
128.391,23:18:39.507
124.786,23:18:39.509
120.825,23:18:39.511
116.496,23:18:39.513
111.795,23:18:39.515
106.713,23:18:39.517
101.249,23:18:39.519
95.399,23:18:39.521
89.165,23:18:39.523
82.548,23:18:39.525
75.553,23:18:39.527
68.187,23:18:39.529
60.458,23:18:39.531
52.378,23:18:39.533
43.96,23:18:39.535
35.22,23:18:39.537
26.177,23:18:39.539
16.85,23:18:39.541
7.262,23:18:39.542
-2.563,23:18:39.544
-12.599,23:18:39.546
-22.819,23:18:39.548
-33.194,23:18:39.550
-43.693,23:18:39.552
-54.287,23:18:39.554
-64.941,23:18:39.556
-75.625,23:18:39.558
-86.303,23:18:39.560
-96.943,23:18:39.562
-107.51,23:18:39.564
-117.969,23:18:39.566
-128.288,23:18:39.568
-138.431,23:18:39.570
-148.367,23:18:39.572
-158.063,23:18:39.574
-167.488,23:18:39.576
-176.612,23:18:39.578
-185.406,23:18:39.580
-193.843,23:18:39.582
-201.898,23:18:39.583
-209.547,23:18:39.585
-216.768,23:18:39.587
-223.541,23:18:39.589
-229.848,23:18:39.591
-235.676,23:18:39.593
-241.009,23:18:39.595
-245.84,23:18:39.597
-250.158,23:18:39.599
-253.96,23:18:39.601
-257.241,23:18:39.603
-260.002,23:18:39.605
-262.243,23:18:39.607
-263.969,23:18:39.609
-265.185,23:18:39.611
-265.899,23:18:39.613
-266.122,23:18:39.615
-265.864,23:18:39.617
-265.14,23:18:39.619
-263.965,23:18:39.621
-262.355,23:18:39.623
-260.328,23:18:39.625
-257.903,23:18:39.626
-255.099,23:18:39.628
-251.938,23:18:39.630
-248.441,23:18:39.632
-244.629,23:18:39.634
-240.525,23:18:39.636
-236.15,23:18:39.638
-231.528,23:18:39.640
-226.679,23:18:39.642
-221.626,23:18:39.644
-216.391,23:18:39.646
-210.994,23:18:39.648
-205.455,23:18:39.650
-199.794,23:18:39.652
-194.029,23:18:39.654
-188.177,23:18:39.656
-182.256,23:18:39.658
-176.279,23:18:39.660
-170.262,23:18:39.662
-164.217,23:18:39.664
-158.158,23:18:39.666
-152.096,23:18:39.667
-146.04,23:18:39.669
-140.001,23:18:39.671
-133.986,23:18:39.673
-128.003,23:18:39.675
-122.059,23:18:39.677
-116.16,23:18:39.679
-110.311,23:18:39.681
-104.516,23:18:39.683
-98.78,23:18:39.685
-93.107,23:18:39.687
-87.5,23:18:39.689
-81.964,23:18:39.691
-76.501,23:18:39.693
-71.116,23:18:39.695
-65.812,23:18:39.697
-60.593,23:18:39.699
-55.462,23:18:39.701
-50.425,23:18:39.703
-45.485,23:18:39.705
-40.649,23:18:39.707
-35.921,23:18:39.708
-31.31,23:18:39.710
-26.821,23:18:39.712
-22.465,23:18:39.714
-18.248,23:18:39.716
-14.182,23:18:39.718
-10.275,23:18:39.720
-6.539,23:18:39.722
-2.982,23:18:39.724
0.384,23:18:39.726
3.548,23:18:39.728
6.5,23:18:39.730
9.228,23:18:39.732
11.723,23:18:39.734
13.973,23:18:39.736
15.967,23:18:39.738
17.696,23:18:39.740
19.149,23:18:39.742
20.317,23:18:39.744
21.194,23:18:39.746
21.772,23:18:39.748
22.046,23:18:39.750
22.012,23:18:39.751
21.666,23:18:39.753
21.007,23:18:39.755
20.033,23:18:39.757
18.745,23:18:39.759
17.146,23:18:39.761
15.237,23:18:39.763
13.023,23:18:39.765
10.511,23:18:39.767
7.71,23:18:39.769
4.63,23:18:39.771
1.284,23:18:39.773
-2.313,23:18:39.775
-6.144,23:18:39.777
-10.19,23:18:39.779
-14.433,23:18:39.781
-18.851,23:18:39.783
-23.422,23:18:39.785
-28.125,23:18:39.787
-32.936,23:18:39.789
-37.833,23:18:39.791
-42.793,23:18:39.792
-47.788,23:18:39.794
-52.791,23:18:39.796
-57.777,23:18:39.798
-62.717,23:18:39.800
-67.586,23:18:39.802
-72.364,23:18:39.804
-77.021,23:18:39.806
-81.53,23:18:39.808
-85.882,23:18:39.810
-90.067,23:18:39.812
-94.072,23:18:39.814
-97.892,23:18:39.816
-101.503,23:18:39.818
-104.876,23:18:39.820
-108.011,23:18:39.822
-110.913,23:18:39.824
-113.537,23:18:39.826
-115.851,23:18:39.828
-117.831,23:18:39.830
-119.445,23:18:39.832
-120.722,23:18:39.833
-121.717,23:18:39.835
-122.412,23:18:39.837
-122.766,23:18:39.839
-122.932,23:18:39.841
-123.09,23:18:39.843
-123.156,23:18:39.845
-123.157,23:18:39.847
-123.141,23:18:39.849
-122.776,23:18:39.851
-123.023,23:18:39.853
-124.817,23:18:39.855
-126.865,23:18:39.857
-128.79,23:18:39.859
-128.21,23:18:39.861
-122.272,23:18:39.863
-114.187,23:18:39.865
-106.101,23:18:39.867
-101.194,23:18:39.869
-103.828,23:18:39.871
-110.18,23:18:39.873
-117.01,23:18:39.875
-122.105,23:18:39.876
-121.791,23:18:39.878
-118.706,23:18:39.880
-115.531,23:18:39.882
-112.874,23:18:39.884
-112.385,23:18:39.886
-113.154,23:18:39.888
-113.992,23:18:39.890
-115.14,23:18:39.892
-116.454,23:18:39.894
-118.021,23:18:39.896
-120.08,23:18:39.898
-122.453,23:18:39.900
-124.965,23:18:39.902
-127.585,23:18:39.904
-130.264,23:18:39.906
-132.942,23:18:39.908
-135.594,23:18:39.910
-138.231,23:18:39.912
-140.842,23:18:39.914
-143.429,23:18:39.916
-146.003,23:18:39.917
-148.506,23:18:39.919
-150.887,23:18:39.921
-153.117,23:18:39.923
-155.125,23:18:39.925
-156.843,23:18:39.927
-158.272,23:18:39.929
-159.441,23:18:39.931
-160.468,23:18:39.933
-161.56,23:18:39.935
-162.857,23:18:39.937
-164.495,23:18:39.939
-166.641,23:18:39.941
-169.325,23:18:39.943
-172.497,23:18:39.945
-175.997,23:18:39.947
-179.487,23:18:39.949
-182.7,23:18:39.951
-185.525,23:18:39.953
-187.788,23:18:39.955
-189.29,23:18:39.957
-190.051,23:18:39.958
-190.275,23:18:39.960
-190.475,23:18:39.962
-191.478,23:18:39.964
-193.804,23:18:39.966
-197.647,23:18:39.968
-203.239,23:18:39.970
-210.899,23:18:39.972
-220.677,23:18:39.974
-232.064,23:18:39.976
-243.814,23:18:39.978
-253.926,23:18:39.980
-260.543,23:18:39.982
-262.301,23:18:39.984
-257.5,23:18:39.986
-244.272,23:18:39.988
-221.197,23:18:39.990
-187.383,23:18:39.992
-144.268,23:18:39.994
-94.625,23:18:39.996
-39.884,23:18:39.998
17.576,23:18:40.000
76.566,23:18:40.001
135.702,23:18:40.003
187.905,23:18:40.005
227.183,23:18:40.007
247.278,23:18:40.009
242.254,23:18:40.011
214.996,23:18:40.013
169.859,23:18:40.015
113.001,23:18:40.017
50.955,23:18:40.019
-16.282,23:18:40.021
-89.004,23:18:40.023
-167.82,23:18:40.025
-248.526,23:18:40.027
-320.01,23:18:40.029
-372.339,23:18:40.031
-396.492,23:18:40.033
-391.819,23:18:40.035
-366.478,23:18:40.037
-328.592,23:18:40.039
-287.546,23:18:40.041
-248.572,23:18:40.042
-211.284,23:18:40.044
-176.536,23:18:40.046
-144.643,23:18:40.048
-116.759,23:18:40.050
-96.468,23:18:40.052
-85.052,23:18:40.054
-81.65,23:18:40.056
-84.485,23:18:40.058
-90.294,23:18:40.060
-96.233,23:18:40.062
-101.003,23:18:40.064
-103.653,23:18:40.066
-103.166,23:18:40.068
-99.138,23:18:40.070
-91.678,23:18:40.072
-81.352,23:18:40.074
-69.534,23:18:40.076
-57.693,23:18:40.078
-46.547,23:18:40.080
-36.501,23:18:40.082
-27.892,23:18:40.083
-20.739,23:18:40.085
-14.993,23:18:40.087
-10.516,23:18:40.089
-6.82,23:18:40.091
-3.359,23:18:40.093
0.145,23:18:40.095
3.839,23:18:40.097
7.775,23:18:40.099
11.883,23:18:40.101
16.154,23:18:40.103
20.6,23:18:40.105
25.16,23:18:40.107
29.762,23:18:40.109
34.36,23:18:40.111
38.918,23:18:40.113
43.422,23:18:40.115
47.879,23:18:40.117
52.256,23:18:40.119
56.503,23:18:40.121
60.589,23:18:40.123
64.489,23:18:40.125
68.192,23:18:40.126
71.709,23:18:40.128
75.061,23:18:40.130
78.269,23:18:40.132
81.363,23:18:40.134
84.375,23:18:40.136
87.318,23:18:40.138
90.207,23:18:40.140
93.069,23:18:40.142
95.918,23:18:40.144
98.757,23:18:40.146
101.599,23:18:40.148
104.446,23:18:40.150
107.329,23:18:40.152
110.327,23:18:40.154
113.506,23:18:40.156
116.886,23:18:40.158
120.519,23:18:40.160
124.47,23:18:40.162
128.783,23:18:40.164
133.542,23:18:40.166
138.757,23:18:40.167
144.285,23:18:40.169
150.009,23:18:40.171
155.935,23:18:40.173
161.935,23:18:40.175
167.727,23:18:40.177
173.293,23:18:40.179
178.689,23:18:40.181
183.904,23:18:40.183
189.572,23:18:40.185
195.303,23:18:40.187
199.018,23:18:40.189
201.019,23:18:40.191
202.925,23:18:40.193
208.374,23:18:40.195
225.173,23:18:40.197
253.976,23:18:40.199
287.486,23:18:40.201
315.255,23:18:40.203
322.074,23:18:40.205
303.993,23:18:40.207
272.508,23:18:40.208
243.424,23:18:40.210
234.47,23:18:40.212
252.188,23:18:40.214
286.536,23:18:40.216
322.851,23:18:40.218
348.246,23:18:40.220
357.274,23:18:40.222
354.761,23:18:40.224
348.801,23:18:40.226
344.564,23:18:40.228
343.881,23:18:40.230
345.528,23:18:40.232
347.062,23:18:40.234
347.69,23:18:40.236
347.544,23:18:40.238
346.821,23:18:40.240
346.049,23:18:40.242
345.224,23:18:40.244
343.946,23:18:40.246
342.144,23:18:40.248
339.458,23:18:40.250
336.296,23:18:40.251
334.568,23:18:40.253
334.096,23:18:40.255
333.129,23:18:40.257
328.966,23:18:40.259
316.017,23:18:40.261
294.195,23:18:40.263
269.554,23:18:40.265
247.735,23:18:40.267
236.569,23:18:40.269
237.373,23:18:40.271
242.268,23:18:40.273
245.943,23:18:40.275
244.177,23:18:40.277
235.011,23:18:40.279
222.369,23:18:40.281
207.13,23:18:40.283
186.204,23:18:40.285
160.757,23:18:40.287
134.047,23:18:40.289
110.364,23:18:40.291
97.557,23:18:40.292
96.304,23:18:40.294
99.678,23:18:40.296
102.188,23:18:40.298
97.522,23:18:40.300
84.379,23:18:40.302
68.315,23:18:40.304
52.776,23:18:40.306
40.043,23:18:40.308
30.933,23:18:40.310
23.276,23:18:40.312
16.081,23:18:40.314
9.514,23:18:40.316
3.536,23:18:40.318
-1.53,23:18:40.320
-5.579,23:18:40.322
-8.899,23:18:40.324
-11.578,23:18:40.326
-13.559,23:18:40.328
-14.85,23:18:40.330
-15.478,23:18:40.332
-15.443,23:18:40.333
-14.741,23:18:40.335
-13.361,23:18:40.337
-11.269,23:18:40.339
-8.474,23:18:40.341
-5.025,23:18:40.343
-0.961,23:18:40.345
3.688,23:18:40.347
8.887,23:18:40.349
14.6,23:18:40.351
20.788,23:18:40.353
27.401,23:18:40.355
34.396,23:18:40.357
41.731,23:18:40.359
49.364,23:18:40.361
57.249,23:18:40.363
65.342,23:18:40.365
73.595,23:18:40.367
81.963,23:18:40.369
90.401,23:18:40.371
98.863,23:18:40.373
107.307,23:18:40.375
115.689,23:18:40.376
123.967,23:18:40.378
132.102,23:18:40.380
140.055,23:18:40.382
147.788,23:18:40.384
155.268,23:18:40.386
162.461,23:18:40.388
169.336,23:18:40.390
175.866,23:18:40.392
182.024,23:18:40.394
187.786,23:18:40.396
193.13,23:18:40.398
198.038,23:18:40.400
202.493,23:18:40.402
206.48,23:18:40.404
209.988,23:18:40.406
213.008,23:18:40.408
215.532,23:18:40.410
217.555,23:18:40.412
219.075,23:18:40.414
220.091,23:18:40.416
220.605,23:18:40.417
220.621,23:18:40.419
220.143,23:18:40.421
219.18,23:18:40.423
217.739,23:18:40.425
215.832,23:18:40.427
213.47,23:18:40.429
210.666,23:18:40.431
207.437,23:18:40.433
203.797,23:18:40.435
199.764,23:18:40.437
195.356,23:18:40.439
190.594,23:18:40.441
185.498,23:18:40.443
180.089,23:18:40.445
174.391,23:18:40.447
168.427,23:18:40.449
162.221,23:18:40.451
155.799,23:18:40.453
149.187,23:18:40.455
142.411,23:18:40.457
135.497,23:18:40.458
128.474,23:18:40.460
121.367,23:18:40.462
114.206,23:18:40.464
107.017,23:18:40.466
99.828,23:18:40.468
92.668,23:18:40.470
85.563,23:18:40.472
78.542,23:18:40.474
71.63,23:18:40.476
64.855,23:18:40.478
58.242,23:18:40.480
51.816,23:18:40.482
45.601,23:18:40.484
39.621,23:18:40.486
33.898,23:18:40.488
28.454,23:18:40.490
23.308,23:18:40.492
18.481,23:18:40.494
13.991,23:18:40.496
9.854,23:18:40.498
6.087,23:18:40.500
2.703,23:18:40.501
-0.286,23:18:40.503
-2.87,23:18:40.505
-5.04,23:18:40.507
-6.792,23:18:40.509
-8.122,23:18:40.511
-9.032,23:18:40.513
-9.523,23:18:40.515
-9.6,23:18:40.517
-9.269,23:18:40.519
-8.542,23:18:40.521
-7.428,23:18:40.523
-5.942,23:18:40.525
-4.1,23:18:40.527
-1.918,23:18:40.529
0.582,23:18:40.531
3.381,23:18:40.533
6.453,23:18:40.535
9.775,23:18:40.537
13.32,23:18:40.539
17.062,23:18:40.541
20.97,23:18:40.542
25.017,23:18:40.544
29.172,23:18:40.546
33.404,23:18:40.548
37.684,23:18:40.550
41.982,23:18:40.552
46.267,23:18:40.554
50.508,23:18:40.556
54.675,23:18:40.558
58.738,23:18:40.560
62.666,23:18:40.562
66.433,23:18:40.564
70.012,23:18:40.566
73.374,23:18:40.568
76.498,23:18:40.570
79.363,23:18:40.572
81.958,23:18:40.574
84.273,23:18:40.576
86.305,23:18:40.578
88.047,23:18:40.580
89.501,23:18:40.582
90.669,23:18:40.583
91.556,23:18:40.585
92.167,23:18:40.587
92.501,23:18:40.589
92.557,23:18:40.591
92.332,23:18:40.593
91.832,23:18:40.595
91.064,23:18:40.597
90.044,23:18:40.599
88.785,23:18:40.601
87.302,23:18:40.603
85.612,23:18:40.605
83.731,23:18:40.607
81.681,23:18:40.609
79.481,23:18:40.611
77.15,23:18:40.613
74.704,23:18:40.615
72.168,23:18:40.617
69.574,23:18:40.619
66.972,23:18:40.621
64.434,23:18:40.623
62.029,23:18:40.625
59.822,23:18:40.626
57.866,23:18:40.628
56.2,23:18:40.630
54.853,23:18:40.632
53.85,23:18:40.634
53.205,23:18:40.636
52.919,23:18:40.638
52.985,23:18:40.640
53.375,23:18:40.642
54.047,23:18:40.644
54.96,23:18:40.646
56.059,23:18:40.648
57.308,23:18:40.650
58.641,23:18:40.652
59.909,23:18:40.654
61.027,23:18:40.656
62.003,23:18:40.658
62.955,23:18:40.660
64.156,23:18:40.662
65.906,23:18:40.664
68.366,23:18:40.666
71.636,23:18:40.667
75.874,23:18:40.669
81.005,23:18:40.671
86.726,23:18:40.673
92.527,23:18:40.675
97.468,23:18:40.677
100.561,23:18:40.679
101.144,23:18:40.681
98.952,23:18:40.683
94.071,23:18:40.685
87.17,23:18:40.687
79.45,23:18:40.689
72.421,23:18:40.691
68.292,23:18:40.693
69.521,23:18:40.695
78.213,23:18:40.697
95.79,23:18:40.699
122.748,23:18:40.701
158.527,23:18:40.703
201.519,23:18:40.705
249.392,23:18:40.707
298.61,23:18:40.708
344.723,23:18:40.710
383.092,23:18:40.712
409.391,23:18:40.714
420.276,23:18:40.716
413.405,23:18:40.718
387.624,23:18:40.720
343.043,23:18:40.722
281.487,23:18:40.724
206.506,23:18:40.726
122.834,23:18:40.728
35.722,23:18:40.730
-49.942,23:18:40.732
-129.288,23:18:40.734
-197.779,23:18:40.736
-251.886,23:18:40.738
-289.306,23:18:40.740
-309.387,23:18:40.742
-313.045,23:18:40.744
-301.819,23:18:40.746
-277.363,23:18:40.748
-242.367,23:18:40.750
-200.166,23:18:40.751
-154.065,23:18:40.753
-107.469,23:18:40.755
-62.998,23:18:40.757
-22.368,23:18:40.759
12.566,23:18:40.761
40.125,23:18:40.763
59.855,23:18:40.765
72.001,23:18:40.767
77.349,23:18:40.769
77.47,23:18:40.771
73.668,23:18:40.773
67.117,23:18:40.775
59.609,23:18:40.777
52.627,23:18:40.779
46.836,23:18:40.781
42.641,23:18:40.783
39.966,23:18:40.785
38.266,23:18:40.787
37.248,23:18:40.789
36.442,23:18:40.791
34.933,23:18:40.792
32.207,23:18:40.794
28.108,23:18:40.796
22.578,23:18:40.798
15.871,23:18:40.800
8.284,23:18:40.802
-0.044,23:18:40.804
-8.773,23:18:40.806
-17.383,23:18:40.808
-25.517,23:18:40.810
-32.901,23:18:40.812
-39.404,23:18:40.814
-45.077,23:18:40.816
-49.941,23:18:40.818
-54.021,23:18:40.820
-57.423,23:18:40.822
-60.311,23:18:40.824
-62.897,23:18:40.826
-65.372,23:18:40.828
-67.822,23:18:40.830
-70.266,23:18:40.832
-72.693,23:18:40.833
-75.078,23:18:40.835
-77.424,23:18:40.837
-79.735,23:18:40.839
-81.987,23:18:40.841
-84.176,23:18:40.843
-86.293,23:18:40.845
-88.328,23:18:40.847
-90.29,23:18:40.849
-92.158,23:18:40.851
-93.881,23:18:40.853
-95.388,23:18:40.855
-96.575,23:18:40.857
-97.344,23:18:40.859
-97.63,23:18:40.861
-97.385,23:18:40.863
-96.575,23:18:40.865
-95.181,23:18:40.867
-93.186,23:18:40.869
-90.583,23:18:40.871
-87.388,23:18:40.873
-83.611,23:18:40.875
-79.258,23:18:40.876
-74.334,23:18:40.878
-68.839,23:18:40.880
-62.781,23:18:40.882
-56.183,23:18:40.884
-49.072,23:18:40.886
-41.486,23:18:40.888
-33.467,23:18:40.890
-25.055,23:18:40.892
-16.295,23:18:40.894
-7.232,23:18:40.896
2.087,23:18:40.898
11.617,23:18:40.900
21.312,23:18:40.902
31.132,23:18:40.904
41.034,23:18:40.906
50.968,23:18:40.908
60.884,23:18:40.910
70.729,23:18:40.912
80.45,23:18:40.914
89.992,23:18:40.916
99.303,23:18:40.917
108.327,23:18:40.919
117.01,23:18:40.921
125.303,23:18:40.923
133.155,23:18:40.925
140.523,23:18:40.927
147.361,23:18:40.929
153.629,23:18:40.931
159.288,23:18:40.933
164.302,23:18:40.935
168.64,23:18:40.937
172.274,23:18:40.939
175.177,23:18:40.941
177.328,23:18:40.943
178.709,23:18:40.945
179.307,23:18:40.947
179.112,23:18:40.949
178.119,23:18:40.951
176.327,23:18:40.953
173.739,23:18:40.955
170.363,23:18:40.957
166.212,23:18:40.958
161.301,23:18:40.960
155.65,23:18:40.962
149.284,23:18:40.964
142.227,23:18:40.966
134.511,23:18:40.968
126.167,23:18:40.970
117.232,23:18:40.972
107.743,23:18:40.974
97.74,23:18:40.976
87.266,23:18:40.978
76.365,23:18:40.980
65.083,23:18:40.982
53.468,23:18:40.984
41.567,23:18:40.986
29.429,23:18:40.988
17.101,23:18:40.990
4.632,23:18:40.992
-7.931,23:18:40.994
-20.541,23:18:40.996
-33.154,23:18:40.998
-45.724,23:18:41.000
-58.208,23:18:41.001
-70.567,23:18:41.003
-82.759,23:18:41.005
-94.748,23:18:41.007
-106.498,23:18:41.009
-117.976,23:18:41.011
-129.152,23:18:41.013
-139.998,23:18:41.015
-150.487,23:18:41.017
-160.6,23:18:41.019
-170.315,23:18:41.021
-179.618,23:18:41.023
-188.495,23:18:41.025
-196.936,23:18:41.027
-204.934,23:18:41.029
-212.483,23:18:41.031
-219.582,23:18:41.033
-226.231,23:18:41.035
-232.434,23:18:41.037
-238.194,23:18:41.039
-243.521,23:18:41.041
-248.422,23:18:41.042
-252.91,23:18:41.044
-256.998,23:18:41.046
-260.701,23:18:41.048
-264.034,23:18:41.050
-267.017,23:18:41.052
-269.666,23:18:41.054
-272.002,23:18:41.056
-274.044,23:18:41.058
-275.812,23:18:41.060
-277.327,23:18:41.062
-278.609,23:18:41.064
-279.68,23:18:41.066
-280.56,23:18:41.068
-281.269,23:18:41.070
-281.83,23:18:41.072
-282.26,23:18:41.074
-282.582,23:18:41.076
-282.812,23:18:41.078
-282.97,23:18:41.080
-283.072,23:18:41.082
-283.133,23:18:41.083
-283.17,23:18:41.085
-283.195,23:18:41.087
-283.219,23:18:41.089
-283.255,23:18:41.091
-283.311,23:18:41.093
-283.397,23:18:41.095
-283.518,23:18:41.097
-283.683,23:18:41.099
-283.895,23:18:41.101
-284.159,23:18:41.103
-284.478,23:18:41.105
-284.853,23:18:41.107
-285.284,23:18:41.109
-285.772,23:18:41.111
-286.315,23:18:41.113
-286.911,23:18:41.115
-287.558,23:18:41.117
-288.252,23:18:41.119
-288.99,23:18:41.121
-289.768,23:18:41.123
-290.581,23:18:41.125
-291.426,23:18:41.126
-292.297,23:18:41.128
-293.188,23:18:41.130
-294.093,23:18:41.132
-295.007,23:18:41.134
-295.921,23:18:41.136
-296.831,23:18:41.138
-297.727,23:18:41.140
-298.604,23:18:41.142
-299.455,23:18:41.144
-300.273,23:18:41.146
-301.052,23:18:41.148
-301.788,23:18:41.150
-302.473,23:18:41.152
-303.104,23:18:41.154
-303.676,23:18:41.156
-304.184,23:18:41.158
-304.624,23:18:41.160
-304.992,23:18:41.162
-305.283,23:18:41.164
-305.495,23:18:41.166
-305.625,23:18:41.167
-305.671,23:18:41.169
-305.632,23:18:41.171
-305.505,23:18:41.173
-305.29,23:18:41.175
-304.987,23:18:41.177
-304.595,23:18:41.179
-304.114,23:18:41.181
-303.544,23:18:41.183
-302.885,23:18:41.185
-302.135,23:18:41.187
-301.295,23:18:41.189
-300.366,23:18:41.191
-299.347,23:18:41.193
-298.24,23:18:41.195
-297.046,23:18:41.197
-295.768,23:18:41.199
-294.408,23:18:41.201
-292.97,23:18:41.203
-291.457,23:18:41.205
-289.874,23:18:41.207
-288.222,23:18:41.208
-286.505,23:18:41.210
-284.725,23:18:41.212
-282.886,23:18:41.214
-280.991,23:18:41.216
-279.043,23:18:41.218
-277.045,23:18:41.220
-275.003,23:18:41.222
-272.922,23:18:41.224
-270.808,23:18:41.226
-268.666,23:18:41.228
-266.501,23:18:41.230
-264.319,23:18:41.232
-262.124,23:18:41.234
-259.921,23:18:41.236
-257.714,23:18:41.238
-255.507,23:18:41.240
-253.304,23:18:41.242
-251.11,23:18:41.244
-248.932,23:18:41.246
-246.777,23:18:41.248
-244.651,23:18:41.250
-242.562,23:18:41.251
-240.52,23:18:41.253
-238.532,23:18:41.255
-236.607,23:18:41.257
-234.754,23:18:41.259
-232.977,23:18:41.261
-231.279,23:18:41.263
-229.662,23:18:41.265
-228.126,23:18:41.267
-226.675,23:18:41.269
-225.308,23:18:41.271
-224.027,23:18:41.273
-222.831,23:18:41.275
-221.726,23:18:41.277
-220.712,23:18:41.279
-219.796,23:18:41.281
-218.978,23:18:41.283
-218.255,23:18:41.285
-217.621,23:18:41.287
-217.07,23:18:41.289
-216.594,23:18:41.291
-216.186,23:18:41.292
-215.839,23:18:41.294
-215.538,23:18:41.296
-215.281,23:18:41.298
-215.071,23:18:41.300
-214.913,23:18:41.302
-214.822,23:18:41.304
-214.806,23:18:41.306
-214.855,23:18:41.308
-214.956,23:18:41.310
-215.091,23:18:41.312
-215.221,23:18:41.314
-215.314,23:18:41.316
-215.333,23:18:41.318
-215.221,23:18:41.320
-214.94,23:18:41.322
-214.477,23:18:41.324
-213.823,23:18:41.326
-212.994,23:18:41.328
-212.001,23:18:41.330
-210.82,23:18:41.332
-209.419,23:18:41.333
-207.76,23:18:41.335
-205.795,23:18:41.337
-203.511,23:18:41.339
-200.896,23:18:41.341
-197.93,23:18:41.343
-194.662,23:18:41.345
-191.18,23:18:41.347
-187.597,23:18:41.349
-184.089,23:18:41.351
-180.806,23:18:41.353
-177.799,23:18:41.355
-175.119,23:18:41.357
-172.809,23:18:41.359
-170.781,23:18:41.361
-168.933,23:18:41.363
-167.121,23:18:41.365
-165.076,23:18:41.367
-162.599,23:18:41.369
-159.612,23:18:41.371
-156.023,23:18:41.373
-151.748,23:18:41.375
-146.959,23:18:41.376
-141.912,23:18:41.378
-136.922,23:18:41.380
-132.521,23:18:41.382
-129.061,23:18:41.384
-126.725,23:18:41.386
-125.672,23:18:41.388
-125.849,23:18:41.390
-126.67,23:18:41.392
-127.195,23:18:41.394
-126.383,23:18:41.396
-122.934,23:18:41.398
-115.775,23:18:41.400
-103.87,23:18:41.402
-86.123,23:18:41.404
-61.944,23:18:41.406
-31.482,23:18:41.408
4.362,23:18:41.410
44.426,23:18:41.412
87.394,23:18:41.414
131.763,23:18:41.416
175.287,23:18:41.417
215.024,23:18:41.419
248.114,23:18:41.421
271.991,23:18:41.423
284.881,23:18:41.425
285.24,23:18:41.427
271.271,23:18:41.429
241.918,23:18:41.431
197.831,23:18:41.433
141.128,23:18:41.435
74.789,23:18:41.437
2.686,23:18:41.439
-71.223,23:18:41.441
-142.803,23:18:41.443
-206.682,23:18:41.445
-258.738,23:18:41.447
-297.751,23:18:41.449
-321.995,23:18:41.451
-329.745,23:18:41.453
-319.548,23:18:41.455
-287.981,23:18:41.457
-237.731,23:18:41.458
-178.505,23:18:41.460
-120.128,23:18:41.462
-73.916,23:18:41.464
-44.066,23:18:41.466
-25.481,23:18:41.468
-13.82,23:18:41.470
-3.838,23:18:41.472
6.342,23:18:41.474
13.114,23:18:41.476
15.345,23:18:41.478
13.082,23:18:41.480
7.586,23:18:41.482
2.507,23:18:41.484
0.029,23:18:41.486
0.832,23:18:41.488
5.131,23:18:41.490
12.115,23:18:41.492
20.834,23:18:41.494
30.582,23:18:41.496
40.421,23:18:41.498
49.675,23:18:41.500
57.94,23:18:41.501
64.973,23:18:41.503
70.843,23:18:41.505
75.7,23:18:41.507
79.765,23:18:41.509
83.391,23:18:41.511
86.958,23:18:41.513
90.704,23:18:41.515
94.752,23:18:41.517
99.12,23:18:41.519
103.723,23:18:41.521
108.517,23:18:41.523
113.464,23:18:41.525
118.477,23:18:41.527
123.476,23:18:41.529
128.387,23:18:41.531
133.163,23:18:41.533
137.782,23:18:41.535
142.232,23:18:41.537
146.501,23:18:41.539
150.585,23:18:41.541
154.48,23:18:41.542
158.191,23:18:41.544
161.741,23:18:41.546
165.153,23:18:41.548
168.454,23:18:41.550
171.684,23:18:41.552
174.866,23:18:41.554
178.019,23:18:41.556
181.169,23:18:41.558
184.333,23:18:41.560
187.532,23:18:41.562
190.793,23:18:41.564
194.139,23:18:41.566
197.599,23:18:41.568
201.201,23:18:41.570
204.968,23:18:41.572
208.92,23:18:41.574
213.08,23:18:41.576
217.46,23:18:41.578
222.07,23:18:41.580
226.916,23:18:41.582
231.997,23:18:41.583
237.313,23:18:41.585
242.866,23:18:41.587
248.656,23:18:41.589
254.681,23:18:41.591
260.935,23:18:41.593
267.41,23:18:41.595
274.094,23:18:41.597
280.975,23:18:41.599
288.035,23:18:41.601
295.252,23:18:41.603
302.601,23:18:41.605
310.054,23:18:41.607
317.581,23:18:41.609
325.154,23:18:41.611
332.739,23:18:41.613
340.307,23:18:41.615
347.822,23:18:41.617
355.252,23:18:41.619
362.561,23:18:41.621
369.715,23:18:41.623
376.68,23:18:41.625
383.42,23:18:41.626
389.9,23:18:41.628
396.086,23:18:41.630
401.943,23:18:41.632
407.441,23:18:41.634
412.549,23:18:41.636
417.238,23:18:41.638
421.482,23:18:41.640
425.257,23:18:41.642
428.54,23:18:41.644
431.313,23:18:41.646
433.56,23:18:41.648
435.268,23:18:41.650
436.426,23:18:41.652
437.027,23:18:41.654
437.069,23:18:41.656
436.551,23:18:41.658
435.478,23:18:41.660
433.856,23:18:41.662
431.697,23:18:41.664
429.015,23:18:41.666
425.828,23:18:41.667
422.157,23:18:41.669
418.026,23:18:41.671
413.462,23:18:41.673
408.492,23:18:41.675
403.149,23:18:41.677
397.465,23:18:41.679
391.474,23:18:41.681
385.214,23:18:41.683
378.721,23:18:41.685
372.032,23:18:41.687
365.188,23:18:41.689
358.227,23:18:41.691
351.188,23:18:41.693
344.111,23:18:41.695
337.033,23:18:41.697
329.993,23:18:41.699
323.026,23:18:41.701
316.169,23:18:41.703
309.454,23:18:41.705
302.914,23:18:41.707
296.579,23:18:41.708
290.475,23:18:41.710
284.628,23:18:41.712
279.061,23:18:41.714
273.793,23:18:41.716
268.841,23:18:41.718
264.218,23:18:41.720
259.935,23:18:41.722
256,23:18:41.724
252.418,23:18:41.726
249.19,23:18:41.728
246.316,23:18:41.730
243.79,23:18:41.732
241.607,23:18:41.734
239.758,23:18:41.736
238.231,23:18:41.738
237.013,23:18:41.740
236.088,23:18:41.742
235.439,23:18:41.744
235.046,23:18:41.746
234.89,23:18:41.748
234.948,23:18:41.750
235.2,23:18:41.751
235.622,23:18:41.753
236.19,23:18:41.755
236.883,23:18:41.757
237.676,23:18:41.759
238.546,23:18:41.761
239.47,23:18:41.763
240.428,23:18:41.765
241.397,23:18:41.767
242.358,23:18:41.769
243.293,23:18:41.771
244.183,23:18:41.773
245.012,23:18:41.775
245.767,23:18:41.777
246.436,23:18:41.779
247.006,23:18:41.781
247.47,23:18:41.783
247.821,23:18:41.785
248.052,23:18:41.787
248.161,23:18:41.789
248.146,23:18:41.791
248.006,23:18:41.792
247.744,23:18:41.794
247.362,23:18:41.796
246.865,23:18:41.798
246.259,23:18:41.800
245.55,23:18:41.802
244.748,23:18:41.804
243.861,23:18:41.806
242.9,23:18:41.808
241.874,23:18:41.810
240.794,23:18:41.812
239.672,23:18:41.814
238.52,23:18:41.816
237.347,23:18:41.818
236.165,23:18:41.820
234.984,23:18:41.822
233.814,23:18:41.824
232.664,23:18:41.826
231.543,23:18:41.828
230.458,23:18:41.830
229.416,23:18:41.832
228.421,23:18:41.833
227.478,23:18:41.835
226.591,23:18:41.837
225.761,23:18:41.839
224.989,23:18:41.841
224.276,23:18:41.843
223.62,23:18:41.845
223.018,23:18:41.847
222.468,23:18:41.849
221.965,23:18:41.851
221.503,23:18:41.853
221.077,23:18:41.855
220.679,23:18:41.857
220.304,23:18:41.859
219.943,23:18:41.861
219.588,23:18:41.863
219.23,23:18:41.865
218.862,23:18:41.867
218.475,23:18:41.869
218.058,23:18:41.871
217.604,23:18:41.873
217.103,23:18:41.875
216.546,23:18:41.876
215.925,23:18:41.878
215.232,23:18:41.880
214.46,23:18:41.882
213.602,23:18:41.884
212.653,23:18:41.886
211.609,23:18:41.888
210.466,23:18:41.890
209.222,23:18:41.892
207.875,23:18:41.894
206.425,23:18:41.896
204.871,23:18:41.898
203.213,23:18:41.900
201.452,23:18:41.902
199.59,23:18:41.904
197.628,23:18:41.906
195.57,23:18:41.908
193.419,23:18:41.910
191.181,23:18:41.912
188.859,23:18:41.914
186.459,23:18:41.916
183.987,23:18:41.917
181.447,23:18:41.919
178.843,23:18:41.921
176.177,23:18:41.923
173.453,23:18:41.925
170.673,23:18:41.927
167.838,23:18:41.929
164.951,23:18:41.931
162.012,23:18:41.933
159.023,23:18:41.935
155.985,23:18:41.937
152.899,23:18:41.939
149.765,23:18:41.941
146.581,23:18:41.943
143.345,23:18:41.945
140.053,23:18:41.947
136.7,23:18:41.949
133.28,23:18:41.951
129.783,23:18:41.953
126.199,23:18:41.955
122.519,23:18:41.957
118.732,23:18:41.958
114.83,23:18:41.960
110.806,23:18:41.962
106.652,23:18:41.964
102.363,23:18:41.966
97.933,23:18:41.968
93.361,23:18:41.970
88.639,23:18:41.972
83.763,23:18:41.974
78.724,23:18:41.976
73.509,23:18:41.978
68.107,23:18:41.980
62.509,23:18:41.982
56.707,23:18:41.984
50.702,23:18:41.986
44.496,23:18:41.988
38.091,23:18:41.990
31.498,23:18:41.992
24.734,23:18:41.994
17.812,23:18:41.996
10.74,23:18:41.998
3.519,23:18:42.000
-3.867,23:18:42.001
-11.425,23:18:42.003
-19.15,23:18:42.005
-27.034,23:18:42.007
-35.053,23:18:42.009
-43.168,23:18:42.011
-51.334,23:18:42.013
-59.481,23:18:42.015
-67.532,23:18:42.017
-75.434,23:18:42.019
-83.146,23:18:42.021
-90.649,23:18:42.023
-97.958,23:18:42.025
-105.076,23:18:42.027
-112.005,23:18:42.029
-118.744,23:18:42.031
-125.24,23:18:42.033
-131.443,23:18:42.035
-137.326,23:18:42.037
-142.842,23:18:42.039
-147.973,23:18:42.041
-152.765,23:18:42.042
-157.28,23:18:42.044
-161.643,23:18:42.046
-166.029,23:18:42.048
-170.525,23:18:42.050
-175.192,23:18:42.052
-180.094,23:18:42.054
-185.205,23:18:42.056
-190.51,23:18:42.058
-195.992,23:18:42.060
-201.524,23:18:42.062
-207.081,23:18:42.064
-212.744,23:18:42.066
-218.468,23:18:42.068
-224.179,23:18:42.070
-229.714,23:18:42.072
-234.59,23:18:42.074
-238.34,23:18:42.076
-240.718,23:18:42.078
-241.346,23:18:42.080
-239.928,23:18:42.082
-236.549,23:18:42.083
-231.321,23:18:42.085
-224.741,23:18:42.087
-217.991,23:18:42.089
-212.107,23:18:42.091
-207.607,23:18:42.093
-204.784,23:18:42.095
-203.406,23:18:42.097
-202.607,23:18:42.099
-201.589,23:18:42.101
-198.913,23:18:42.103
-192.146,23:18:42.105
-178.995,23:18:42.107
-157.527,23:18:42.109
-127.472,23:18:42.111
-90.719,23:18:42.113
-49.525,23:18:42.115
-6.364,23:18:42.117
39.072,23:18:42.119
89.927,23:18:42.121
145.425,23:18:42.123
201.755,23:18:42.125
248.099,23:18:42.126
267.297,23:18:42.128
251.076,23:18:42.130
198.224,23:18:42.132
116.927,23:18:42.134
23.179,23:18:42.136
-76.043,23:18:42.138
-175.872,23:18:42.140
-272.676,23:18:42.142
-362.549,23:18:42.144
-431.359,23:18:42.146
-469.526,23:18:42.148
-474.856,23:18:42.150
-451.62,23:18:42.152
-414.822,23:18:42.154
-375.153,23:18:42.156
-336.784,23:18:42.158
-301.365,23:18:42.160
-265.546,23:18:42.162
-228.434,23:18:42.164
-192.695,23:18:42.166
-160.614,23:18:42.167
-134.914,23:18:42.169
-116.957,23:18:42.171
-106.074,23:18:42.173
-100.666,23:18:42.175
-98.727,23:18:42.177
-98.599,23:18:42.179
-98.808,23:18:42.181
-98.514,23:18:42.183
-97.322,23:18:42.185
-94.543,23:18:42.187
-89.892,23:18:42.189
-83.722,23:18:42.191
-76.535,23:18:42.193
-69.071,23:18:42.195
-62.263,23:18:42.197
-56.48,23:18:42.199
-51.807,23:18:42.201
-48.511,23:18:42.203
-46.567,23:18:42.205
-45.793,23:18:42.207
-46.046,23:18:42.208
-46.917,23:18:42.210
-47.92,23:18:42.212
-48.856,23:18:42.214
-49.63,23:18:42.216
-50.164,23:18:42.218
-50.513,23:18:42.220
-50.7,23:18:42.222
-50.704,23:18:42.224
-50.62,23:18:42.226
-50.547,23:18:42.228
-50.533,23:18:42.230
-50.633,23:18:42.232
-50.86,23:18:42.234
-51.206,23:18:42.236
-51.701,23:18:42.238
-52.364,23:18:42.240
-53.193,23:18:42.242
-54.184,23:18:42.244
-55.31,23:18:42.246
-56.528,23:18:42.248
-57.803,23:18:42.250
-59.092,23:18:42.251
-60.345,23:18:42.253
-61.523,23:18:42.255
-62.587,23:18:42.257
-63.5,23:18:42.259
-64.235,23:18:42.261
-64.762,23:18:42.263
-65.045,23:18:42.265
-65.049,23:18:42.267
-64.734,23:18:42.269
-64.059,23:18:42.271
-62.991,23:18:42.273
-61.496,23:18:42.275
-59.545,23:18:42.277
-57.118,23:18:42.279
-54.201,23:18:42.281
-50.785,23:18:42.283
-46.87,23:18:42.285
-42.458,23:18:42.287
-37.546,23:18:42.289
-32.131,23:18:42.291
-26.204,23:18:42.292
-19.752,23:18:42.294
-12.773,23:18:42.296
-5.278,23:18:42.298
2.712,23:18:42.300
11.162,23:18:42.302
20.016,23:18:42.304
29.206,23:18:42.306
38.657,23:18:42.308
48.285,23:18:42.310
58.021,23:18:42.312
67.812,23:18:42.314
77.622,23:18:42.316
87.441,23:18:42.318
97.259,23:18:42.320
107.071,23:18:42.322
116.85,23:18:42.324
126.544,23:18:42.326
136.105,23:18:42.328
145.494,23:18:42.330
154.68,23:18:42.332
163.647,23:18:42.333
172.405,23:18:42.335
180.992,23:18:42.337
189.459,23:18:42.339
197.88,23:18:42.341
206.292,23:18:42.343
214.693,23:18:42.345
223.029,23:18:42.347
231.188,23:18:42.349
239.034,23:18:42.351
246.399,23:18:42.353
253.154,23:18:42.355
259.205,23:18:42.357
264.47,23:18:42.359
268.88,23:18:42.361
272.362,23:18:42.363
274.849,23:18:42.365
276.244,23:18:42.367
276.439,23:18:42.369
275.294,23:18:42.371
272.643,23:18:42.373
268.37,23:18:42.375
262.414,23:18:42.376
254.791,23:18:42.378
245.598,23:18:42.380
234.987,23:18:42.382
223.167,23:18:42.384
210.32,23:18:42.386
196.604,23:18:42.388
182.163,23:18:42.390
167.112,23:18:42.392
151.569,23:18:42.394
135.642,23:18:42.396
119.456,23:18:42.398
103.144,23:18:42.400
86.875,23:18:42.402
70.857,23:18:42.404
55.265,23:18:42.406
40.249,23:18:42.408
25.895,23:18:42.410
12.232,23:18:42.412
-0.758,23:18:42.414
-13.137,23:18:42.416
-24.958,23:18:42.417
-36.257,23:18:42.419
-47.055,23:18:42.421
-57.345,23:18:42.423
-67.113,23:18:42.425
-76.333,23:18:42.427
-84.98,23:18:42.429
-93.025,23:18:42.431
-100.466,23:18:42.433
-107.332,23:18:42.435
-113.647,23:18:42.437
-119.434,23:18:42.439
-124.694,23:18:42.441
-129.405,23:18:42.443
-133.53,23:18:42.445
-137.013,23:18:42.447
-139.81,23:18:42.449
-141.879,23:18:42.451
-143.196,23:18:42.453
-143.755,23:18:42.455
-143.563,23:18:42.457
-142.641,23:18:42.458
-141.019,23:18:42.460
-138.74,23:18:42.462
-135.842,23:18:42.464
-132.354,23:18:42.466
-128.305,23:18:42.468
-123.724,23:18:42.470
-118.643,23:18:42.472
-113.105,23:18:42.474
-107.155,23:18:42.476
-100.842,23:18:42.478
-94.219,23:18:42.480
-87.339,23:18:42.482
-80.255,23:18:42.484
-73.015,23:18:42.486
-65.667,23:18:42.488
-58.252,23:18:42.490
-50.808,23:18:42.492
-43.372,23:18:42.494
-35.977,23:18:42.496
-28.659,23:18:42.498
-21.454,23:18:42.500
-14.397,23:18:42.501
-7.525,23:18:42.503
-0.871,23:18:42.505
5.533,23:18:42.507
11.654,23:18:42.509
17.463,23:18:42.511
22.936,23:18:42.513
28.05,23:18:42.515
32.786,23:18:42.517
37.127,23:18:42.519
41.057,23:18:42.521
44.564,23:18:42.523
47.639,23:18:42.525
50.273,23:18:42.527
52.461,23:18:42.529
54.199,23:18:42.531
55.486,23:18:42.533
56.321,23:18:42.535
56.709,23:18:42.537
56.653,23:18:42.539
56.162,23:18:42.541
55.243,23:18:42.542
53.908,23:18:42.544
52.168,23:18:42.546
50.038,23:18:42.548
47.534,23:18:42.550
44.672,23:18:42.552
41.47,23:18:42.554
37.949,23:18:42.556
34.13,23:18:42.558
30.035,23:18:42.560
25.689,23:18:42.562
21.116,23:18:42.564
16.344,23:18:42.566
11.4,23:18:42.568
6.312,23:18:42.570
1.11,23:18:42.572
-4.179,23:18:42.574
-9.525,23:18:42.576
-14.899,23:18:42.578
-20.274,23:18:42.580
-25.621,23:18:42.582
-30.914,23:18:42.583
-36.125,23:18:42.585
-41.229,23:18:42.587
-46.202,23:18:42.589
-51.019,23:18:42.591
-55.659,23:18:42.593
-60.1,23:18:42.595
-64.322,23:18:42.597
-68.307,23:18:42.599
-72.039,23:18:42.601
-75.503,23:18:42.603
-78.684,23:18:42.605
-81.57,23:18:42.607
-84.15,23:18:42.609
-86.417,23:18:42.611
-88.363,23:18:42.613
-89.985,23:18:42.615
-91.28,23:18:42.617
-92.25,23:18:42.619
-92.899,23:18:42.621
-93.234,23:18:42.623
-93.265,23:18:42.625
-93.002,23:18:42.626
-92.461,23:18:42.628
-91.658,23:18:42.630
-90.611,23:18:42.632
-89.339,23:18:42.634
-87.865,23:18:42.636
-86.213,23:18:42.638
-84.406,23:18:42.640
-82.471,23:18:42.642
-80.434,23:18:42.644
-78.325,23:18:42.646
-76.17,23:18:42.648
-74.001,23:18:42.650
-71.845,23:18:42.652
-69.733,23:18:42.654
-67.692,23:18:42.656
-65.75,23:18:42.658
-63.933,23:18:42.660
-62.269,23:18:42.662
-60.783,23:18:42.664
-59.5,23:18:42.666
-58.446,23:18:42.667
-57.642,23:18:42.669
-57.112,23:18:42.671
-56.877,23:18:42.673
-56.957,23:18:42.675
-57.369,23:18:42.677
-58.127,23:18:42.679
-59.238,23:18:42.681
-60.706,23:18:42.683
-62.528,23:18:42.685
-64.698,23:18:42.687
-67.213,23:18:42.689
-70.061,23:18:42.691
-73.232,23:18:42.693
-76.712,23:18:42.695
-80.492,23:18:42.697
-84.563,23:18:42.699
-88.92,23:18:42.701
-93.554,23:18:42.703
-98.451,23:18:42.705
-103.593,23:18:42.707
-108.96,23:18:42.708
-114.533,23:18:42.710
-120.294,23:18:42.712
-126.229,23:18:42.714
-132.318,23:18:42.716
-138.543,23:18:42.718
-144.881,23:18:42.720
-151.311,23:18:42.722
-157.815,23:18:42.724
-164.367,23:18:42.726
-170.934,23:18:42.728
-177.46,23:18:42.730
-183.875,23:18:42.732
-190.108,23:18:42.734
-196.107,23:18:42.736
-201.835,23:18:42.738
-207.258,23:18:42.740
-212.342,23:18:42.742
-217.048,23:18:42.744
-221.339,23:18:42.746
-225.22,23:18:42.748
-228.72,23:18:42.750
-231.89,23:18:42.751
-234.793,23:18:42.753
-237.486,23:18:42.755
-239.992,23:18:42.757
-242.365,23:18:42.759
-244.735,23:18:42.761
-247.185,23:18:42.763
-249.731,23:18:42.765
-252.279,23:18:42.767
-254.567,23:18:42.769
-256.34,23:18:42.771
-257.475,23:18:42.773
-257.929,23:18:42.775
-257.675,23:18:42.777
-256.883,23:18:42.779
-255.833,23:18:42.781
-254.982,23:18:42.783
-255.161,23:18:42.785
-257.225,23:18:42.787
-261.9,23:18:42.789
-269.562,23:18:42.791
-280.07,23:18:42.792
-292.665,23:18:42.794
-306.235,23:18:42.796
-319.362,23:18:42.798
-330.127,23:18:42.800
-336.412,23:18:42.802
-335.842,23:18:42.804
-326.65,23:18:42.806
-308.191,23:18:42.808
-280.605,23:18:42.810
-245.126,23:18:42.812
-203.806,23:18:42.814
-159.046,23:18:42.816
-115.399,23:18:42.818
-78.456,23:18:42.820
-51.647,23:18:42.822
-38.832,23:18:42.824
-39.869,23:18:42.826
-51.487,23:18:42.828
-76.364,23:18:42.830
-115.397,23:18:42.832
-172.93,23:18:42.833
-257.358,23:18:42.835
-363.63,23:18:42.837
-482.503,23:18:42.839
-598.15,23:18:42.841
-685.853,23:18:42.843
-735.103,23:18:42.845
-745.268,23:18:42.847
-723.633,23:18:42.849
-688.597,23:18:42.851
-650.965,23:18:42.853
-614.138,23:18:42.855
-578.513,23:18:42.857
-539.414,23:18:42.859
-496.451,23:18:42.861
-453.417,23:18:42.863
-414.454,23:18:42.865
-384.393,23:18:42.867
-365.123,23:18:42.869
-355.865,23:18:42.871
-355.187,23:18:42.873
-360.73,23:18:42.875
-370.116,23:18:42.876
-381.321,23:18:42.878
-392.002,23:18:42.880
-400.138,23:18:42.882
-404.713,23:18:42.884
-405.313,23:18:42.886
-402.086,23:18:42.888
-395.78,23:18:42.890
-387.263,23:18:42.892
-377.484,23:18:42.894
-367.625,23:18:42.896
-358.608,23:18:42.898
-350.841,23:18:42.900
-344.459,23:18:42.902
-339.346,23:18:42.904
-335.2,23:18:42.906
-331.747,23:18:42.908
-328.675,23:18:42.910
-325.573,23:18:42.912
-322.189,23:18:42.914
-318.452,23:18:42.916
-314.368,23:18:42.917
-310.042,23:18:42.919
-305.583,23:18:42.921
-301.051,23:18:42.923
-296.514,23:18:42.925
-292.071,23:18:42.927
-287.775,23:18:42.929
-283.668,23:18:42.931
-279.784,23:18:42.933
-276.11,23:18:42.935
-272.633,23:18:42.937
-269.354,23:18:42.939
-266.258,23:18:42.941
-263.33,23:18:42.943
-260.553,23:18:42.945
-257.893,23:18:42.947
-255.31,23:18:42.949
-252.774,23:18:42.951
-250.263,23:18:42.953
-247.753,23:18:42.955
-245.229,23:18:42.957
-242.666,23:18:42.958
-240.039,23:18:42.960
-237.319,23:18:42.962
-234.476,23:18:42.964
-231.48,23:18:42.966
-228.304,23:18:42.968
-224.922,23:18:42.970
-221.309,23:18:42.972
-217.44,23:18:42.974
-213.296,23:18:42.976
-208.863,23:18:42.978
-204.132,23:18:42.980
-199.092,23:18:42.982
-193.733,23:18:42.984
-188.042,23:18:42.986
-182.01,23:18:42.988
-175.631,23:18:42.990
-168.901,23:18:42.992
-161.82,23:18:42.994
-154.389,23:18:42.996
-146.614,23:18:42.998
-138.507,23:18:43.000
-130.082,23:18:43.001
-121.358,23:18:43.003
-112.357,23:18:43.005
-103.1,23:18:43.007
-93.613,23:18:43.009
-83.924,23:18:43.011
-74.061,23:18:43.013
-64.057,23:18:43.015
-53.944,23:18:43.017
-43.758,23:18:43.019
-33.536,23:18:43.021
-23.318,23:18:43.023
-13.143,23:18:43.025
-3.054,23:18:43.027
6.907,23:18:43.029
16.699,23:18:43.031
26.278,23:18:43.033
35.603,23:18:43.035
44.631,23:18:43.037
53.322,23:18:43.039
61.635,23:18:43.041
69.533,23:18:43.042
76.976,23:18:43.044
83.931,23:18:43.046
90.362,23:18:43.048
96.238,23:18:43.050
101.53,23:18:43.052
106.214,23:18:43.054
110.265,23:18:43.056
113.665,23:18:43.058
116.398,23:18:43.060
118.453,23:18:43.062
119.821,23:18:43.064
120.5,23:18:43.066
120.488,23:18:43.068
119.79,23:18:43.070
118.413,23:18:43.072
116.368,23:18:43.074
113.672,23:18:43.076
110.341,23:18:43.078
106.399,23:18:43.080
101.871,23:18:43.082
96.785,23:18:43.083
91.174,23:18:43.085
85.071,23:18:43.087
78.515,23:18:43.089
71.544,23:18:43.091
64.201,23:18:43.093
56.528,23:18:43.095
48.57,23:18:43.097
40.374,23:18:43.099
31.986,23:18:43.101
23.455,23:18:43.103
14.83,23:18:43.105
6.158,23:18:43.107
-2.512,23:18:43.109
-11.132,23:18:43.111
-19.653,23:18:43.113
-28.031,23:18:43.115
-36.219,23:18:43.117
-44.176,23:18:43.119
-51.858,23:18:43.121
-59.228,23:18:43.123
-66.247,23:18:43.125
-72.882,23:18:43.126
-79.101,23:18:43.128
-84.874,23:18:43.130
-90.175,23:18:43.132
-94.981,23:18:43.134
-99.273,23:18:43.136
-103.032,23:18:43.138
-106.245,23:18:43.140
-108.902,23:18:43.142
-110.993,23:18:43.144
-112.515,23:18:43.146
-113.465,23:18:43.148
-113.844,23:18:43.150
-113.656,23:18:43.152
-112.907,23:18:43.154
-111.606,23:18:43.156
-109.764,23:18:43.158
-107.395,23:18:43.160
-104.513,23:18:43.162
-101.138,23:18:43.164
-97.287,23:18:43.166
-92.983,23:18:43.167
-88.247,23:18:43.169
-83.104,23:18:43.171
-77.579,23:18:43.173
-71.696,23:18:43.175
-65.485,23:18:43.177
-58.97,23:18:43.179
-52.18,23:18:43.181
-45.144,23:18:43.183
-37.888,23:18:43.185
-30.441,23:18:43.187
-22.831,23:18:43.189
-15.084,23:18:43.191
-7.227,23:18:43.193
0.713,23:18:43.195
8.71,23:18:43.197
16.74,23:18:43.199
24.779,23:18:43.201
32.802,23:18:43.203
40.789,23:18:43.205
48.715,23:18:43.207
56.562,23:18:43.208
64.308,23:18:43.210
71.935,23:18:43.212
79.424,23:18:43.214
86.759,23:18:43.216
93.924,23:18:43.218
100.904,23:18:43.220
107.684,23:18:43.222
114.251,23:18:43.224
120.593,23:18:43.226
126.699,23:18:43.228
132.557,23:18:43.230
138.159,23:18:43.232
143.495,23:18:43.234
148.557,23:18:43.236
153.338,23:18:43.238
157.831,23:18:43.240
162.031,23:18:43.242
165.932,23:18:43.244
169.531,23:18:43.246
172.823,23:18:43.248
175.806,23:18:43.250
178.478,23:18:43.251
180.836,23:18:43.253
182.882,23:18:43.255
184.614,23:18:43.257
186.035,23:18:43.259
187.147,23:18:43.261
187.952,23:18:43.263
188.456,23:18:43.265
188.663,23:18:43.267
188.579,23:18:43.269
188.211,23:18:43.271
187.567,23:18:43.273
186.655,23:18:43.275
185.484,23:18:43.277
184.063,23:18:43.279
182.402,23:18:43.281
180.514,23:18:43.283
178.408,23:18:43.285
176.097,23:18:43.287
173.594,23:18:43.289
170.911,23:18:43.291
168.061,23:18:43.292
165.06,23:18:43.294
161.92,23:18:43.296
158.656,23:18:43.298
155.28,23:18:43.300
151.809,23:18:43.302
148.26,23:18:43.304
144.649,23:18:43.306
140.991,23:18:43.308
137.302,23:18:43.310
133.591,23:18:43.312
129.879,23:18:43.314
126.183,23:18:43.316
122.506,23:18:43.318
118.853,23:18:43.320
115.228,23:18:43.322
111.628,23:18:43.324
108.071,23:18:43.326
104.578,23:18:43.328
101.141,23:18:43.330
97.748,23:18:43.332
94.432,23:18:43.333
91.219,23:18:43.335
88.128,23:18:43.337
85.186,23:18:43.339
82.366,23:18:43.341
79.613,23:18:43.343
76.949,23:18:43.345
74.417,23:18:43.347
71.88,23:18:43.349
69.177,23:18:43.351
66.389,23:18:43.353
63.499,23:18:43.355
60.466,23:18:43.357
57.613,23:18:43.359
54.034,23:18:43.361
48.847,23:18:43.363
43.284,23:18:43.365
37.71,23:18:43.367
34.401,23:18:43.369
36.084,23:18:43.371
39.717,23:18:43.373
43.269,23:18:43.375
43.723,23:18:43.376
36.937,23:18:43.378
26.559,23:18:43.380
15.688,23:18:43.382
6.448,23:18:43.384
2.351,23:18:43.386
0.897,23:18:43.388
-0.45,23:18:43.390
-2.247,23:18:43.392
-6.03,23:18:43.394
-10.888,23:18:43.396
-15.653,23:18:43.398
-20.535,23:18:43.400
-25.378,23:18:43.402
-30.25,23:18:43.404
-35.37,23:18:43.406
-40.568,23:18:43.408
-45.705,23:18:43.410
-50.797,23:18:43.412
-55.829,23:18:43.414
-60.766,23:18:43.416
-65.584,23:18:43.417
-70.272,23:18:43.419
-74.819,23:18:43.421
-79.216,23:18:43.423
-83.46,23:18:43.425
-87.504,23:18:43.427
-91.285,23:18:43.429
-94.761,23:18:43.431
-97.885,23:18:43.433
-100.599,23:18:43.435
-102.852,23:18:43.437
-104.599,23:18:43.439
-105.812,23:18:43.441
-106.504,23:18:43.443
-106.702,23:18:43.445
-106.429,23:18:43.447
-105.694,23:18:43.449
-104.484,23:18:43.451
-102.806,23:18:43.453
-100.712,23:18:43.455
-98.272,23:18:43.457
-95.569,23:18:43.458
-92.667,23:18:43.460
-89.573,23:18:43.462
-86.332,23:18:43.464
-83.076,23:18:43.466
-79.862,23:18:43.468
-76.674,23:18:43.470
-73.309,23:18:43.472
-69.325,23:18:43.474
-64.424,23:18:43.476
-58.538,23:18:43.478
-51.627,23:18:43.480
-43.67,23:18:43.482
-34.687,23:18:43.484
-24.71,23:18:43.486
-14.234,23:18:43.488
-4.322,23:18:43.490
4.278,23:18:43.492
11.289,23:18:43.494
16.791,23:18:43.496
21.296,23:18:43.498
25.274,23:18:43.500
29.135,23:18:43.501
34.185,23:18:43.503
42.708,23:18:43.505
56.828,23:18:43.507
78.322,23:18:43.509
106.885,23:18:43.511
139.919,23:18:43.513
175.578,23:18:43.515
212.025,23:18:43.517
250.242,23:18:43.519
294.577,23:18:43.521
344.77,23:18:43.523
396.515,23:18:43.525
438.965,23:18:43.527
454.074,23:18:43.529
430.195,23:18:43.531
365.062,23:18:43.533
266.47,23:18:43.535
151.645,23:18:43.537
37.362,23:18:43.539
-63.891,23:18:43.541
-145.425,23:18:43.542
-204.122,23:18:43.544
-240.635,23:18:43.546
-259.981,23:18:43.548
-265.878,23:18:43.550
-262.509,23:18:43.552
-251.634,23:18:43.554
-230.316,23:18:43.556
-198.178,23:18:43.558
-157.155,23:18:43.560
-110.678,23:18:43.562
-63.849,23:18:43.564
-19.912,23:18:43.566
19.636,23:18:43.568
53.555,23:18:43.570
80.917,23:18:43.572
101.372,23:18:43.574
115.48,23:18:43.576
124.428,23:18:43.578
129.451,23:18:43.580
131.582,23:18:43.582
131.734,23:18:43.583
131.17,23:18:43.585
131.204,23:18:43.587
132.46,23:18:43.589
134.923,23:18:43.591
138.223,23:18:43.593
141.85,23:18:43.595
145.485,23:18:43.597
148.839,23:18:43.599
151.241,23:18:43.601
152.166,23:18:43.603
151.537,23:18:43.605
149.422,23:18:43.607
146.127,23:18:43.609
142.033,23:18:43.611
137.3,23:18:43.613
132.163,23:18:43.615
127.063,23:18:43.617
122.317,23:18:43.619
118.153,23:18:43.621
114.779,23:18:43.623
112.193,23:18:43.625
110.369,23:18:43.626
109.349,23:18:43.628
109.051,23:18:43.630
109.34,23:18:43.632
110.073,23:18:43.634
111.012,23:18:43.636
111.993,23:18:43.638
112.955,23:18:43.640
113.84,23:18:43.642
114.632,23:18:43.644
115.34,23:18:43.646
115.935,23:18:43.648
116.417,23:18:43.650
116.811,23:18:43.652
117.094,23:18:43.654
117.254,23:18:43.656
117.287,23:18:43.658
117.171,23:18:43.660
116.927,23:18:43.662
116.605,23:18:43.664
116.269,23:18:43.666
116.023,23:18:43.667
115.962,23:18:43.669
116.145,23:18:43.671
116.626,23:18:43.673
117.441,23:18:43.675
118.61,23:18:43.677
120.157,23:18:43.679
122.088,23:18:43.681
124.392,23:18:43.683
127.071,23:18:43.685
130.133,23:18:43.687
133.586,23:18:43.689
137.447,23:18:43.691
141.722,23:18:43.693
146.405,23:18:43.695
151.487,23:18:43.697
156.953,23:18:43.699
162.781,23:18:43.701
168.951,23:18:43.703
175.441,23:18:43.705
182.227,23:18:43.707
189.288,23:18:43.708
196.605,23:18:43.710
204.159,23:18:43.712
211.934,23:18:43.714
219.908,23:18:43.716
228.052,23:18:43.718
236.333,23:18:43.720
244.719,23:18:43.722
253.177,23:18:43.724
261.675,23:18:43.726
270.17,23:18:43.728
278.619,23:18:43.730
286.999,23:18:43.732
295.295,23:18:43.734
303.491,23:18:43.736
311.565,23:18:43.738
319.466,23:18:43.740
327.129,23:18:43.742
334.524,23:18:43.744
341.609,23:18:43.746
348.289,23:18:43.748
354.451,23:18:43.750
359.996,23:18:43.751
364.846,23:18:43.753
369.006,23:18:43.755
372.552,23:18:43.757
375.456,23:18:43.759
377.753,23:18:43.761
379.732,23:18:43.763
381.609,23:18:43.765
383.386,23:18:43.767
385.018,23:18:43.769
386.258,23:18:43.771
387.485,23:18:43.773
390.233,23:18:43.775
395.495,23:18:43.777
402.237,23:18:43.779
406.163,23:18:43.781
401.368,23:18:43.783
383.824,23:18:43.785
355.574,23:18:43.787
327.16,23:18:43.789
309.523,23:18:43.791
310.203,23:18:43.792
328.814,23:18:43.794
351.774,23:18:43.796
367.058,23:18:43.798
367.086,23:18:43.800
349.484,23:18:43.802
324.899,23:18:43.804
301.845,23:18:43.806
284.334,23:18:43.808
275.459,23:18:43.810
270.311,23:18:43.812
265.088,23:18:43.814
259.37,23:18:43.816
251.748,23:18:43.818
243.435,23:18:43.820
235.607,23:18:43.822
227.77,23:18:43.824
220.03,23:18:43.826
212.377,23:18:43.828
204.589,23:18:43.830
196.848,23:18:43.832
189.326,23:18:43.833
182.042,23:18:43.835
175.068,23:18:43.837
168.487,23:18:43.839
162.319,23:18:43.841
156.546,23:18:43.843
151.169,23:18:43.845
146.179,23:18:43.847
141.558,23:18:43.849
137.325,23:18:43.851
133.489,23:18:43.853
130.043,23:18:43.855
126.987,23:18:43.857
124.324,23:18:43.859
122.05,23:18:43.861
120.164,23:18:43.863
118.663,23:18:43.865
117.538,23:18:43.867
116.779,23:18:43.869
116.376,23:18:43.871
116.317,23:18:43.873
116.593,23:18:43.875
117.19,23:18:43.876
118.094,23:18:43.878
119.293,23:18:43.880
120.769,23:18:43.882
122.509,23:18:43.884
124.495,23:18:43.886
126.711,23:18:43.888
129.141,23:18:43.890
131.767,23:18:43.892
134.573,23:18:43.894
137.539,23:18:43.896
140.65,23:18:43.898
143.888,23:18:43.900
147.236,23:18:43.902
150.678,23:18:43.904
154.195,23:18:43.906
157.773,23:18:43.908
161.395,23:18:43.910
165.044,23:18:43.912
168.706,23:18:43.914
172.364,23:18:43.916
176.003,23:18:43.917
179.607,23:18:43.919
183.162,23:18:43.921
186.653,23:18:43.923
190.063,23:18:43.925
193.38,23:18:43.927
196.587,23:18:43.929
199.671,23:18:43.931
202.616,23:18:43.933
205.41,23:18:43.935
208.038,23:18:43.937
210.488,23:18:43.939
212.748,23:18:43.941
214.806,23:18:43.943
216.652,23:18:43.945
218.278,23:18:43.947
219.674,23:18:43.949
220.835,23:18:43.951
221.755,23:18:43.953
222.429,23:18:43.955
222.855,23:18:43.957
223.03,23:18:43.958
222.954,23:18:43.960
222.628,23:18:43.962
222.054,23:18:43.964
221.234,23:18:43.966
220.174,23:18:43.968
218.878,23:18:43.970
217.355,23:18:43.972
215.612,23:18:43.974
213.658,23:18:43.976
211.505,23:18:43.978
209.163,23:18:43.980
206.647,23:18:43.982
203.969,23:18:43.984
201.145,23:18:43.986
198.193,23:18:43.988
195.129,23:18:43.990
191.973,23:18:43.992
188.746,23:18:43.994
185.467,23:18:43.996
182.159,23:18:43.998
178.843,23:18:44.000
175.542,23:18:44.001
172.275,23:18:44.003
169.066,23:18:44.005
165.931,23:18:44.007
162.89,23:18:44.009
159.959,23:18:44.011
157.154,23:18:44.013
154.487,23:18:44.015
151.971,23:18:44.017
149.617,23:18:44.019
147.432,23:18:44.021
145.425,23:18:44.023
143.6,23:18:44.025
141.96,23:18:44.027
140.508,23:18:44.029
139.243,23:18:44.031
138.162,23:18:44.033
137.262,23:18:44.035
136.536,23:18:44.037
135.976,23:18:44.039
135.572,23:18:44.041
135.314,23:18:44.042
135.19,23:18:44.044
135.186,23:18:44.046
135.29,23:18:44.048
135.484,23:18:44.050
135.752,23:18:44.052
136.075,23:18:44.054
136.433,23:18:44.056
136.803,23:18:44.058
137.164,23:18:44.060
137.491,23:18:44.062
137.762,23:18:44.064
137.957,23:18:44.066
138.059,23:18:44.068
138.055,23:18:44.070
137.935,23:18:44.072
137.694,23:18:44.074
137.325,23:18:44.076
136.825,23:18:44.078
136.191,23:18:44.080
135.42,23:18:44.082
134.504,23:18:44.083
133.435,23:18:44.085
132.202,23:18:44.087
130.798,23:18:44.089
129.221,23:18:44.091
127.47,23:18:44.093
125.543,23:18:44.095
123.439,23:18:44.097
121.155,23:18:44.099
118.691,23:18:44.101
116.049,23:18:44.103
113.23,23:18:44.105
110.231,23:18:44.107
107.056,23:18:44.109
103.713,23:18:44.111
100.22,23:18:44.113
96.613,23:18:44.115
92.938,23:18:44.117
89.262,23:18:44.119
85.643,23:18:44.121
82.128,23:18:44.123
78.766,23:18:44.125
75.613,23:18:44.126
72.72,23:18:44.128
70.156,23:18:44.130
67.957,23:18:44.132
66.115,23:18:44.134
64.621,23:18:44.136
63.448,23:18:44.138
62.544,23:18:44.140
61.893,23:18:44.142
61.407,23:18:44.144
60.926,23:18:44.146
60.383,23:18:44.148
59.76,23:18:44.150
59.129,23:18:44.152
58.763,23:18:44.154
58.879,23:18:44.156
59.533,23:18:44.158
60.895,23:18:44.160
63.138,23:18:44.162
66.082,23:18:44.164
69.425,23:18:44.166
72.521,23:18:44.167
74.197,23:18:44.169
73.577,23:18:44.171
70.117,23:18:44.173
63.172,23:18:44.175
52.388,23:18:44.177
38.191,23:18:44.179
21.417,23:18:44.181
3.653,23:18:44.183
-12.578,23:18:44.185
-25.183,23:18:44.187
-32.28,23:18:44.189
-31.772,23:18:44.191
-22.214,23:18:44.193
-3.009,23:18:44.195
25.898,23:18:44.197
63.403,23:18:44.199
107.114,23:18:44.201
153.73,23:18:44.203
198.404,23:18:44.205
236.076,23:18:44.207
263.353,23:18:44.208
280.32,23:18:44.210
289.07,23:18:44.212
290.418,23:18:44.214
282.086,23:18:44.216
255.258,23:18:44.218
201.085,23:18:44.220
115.059,23:18:44.222
-2.483,23:18:44.224
-139.024,23:18:44.226
-278.218,23:18:44.228
-403.373,23:18:44.230
-496.64,23:18:44.232
-552.174,23:18:44.234
-571.83,23:18:44.236
-562.593,23:18:44.238
-538.597,23:18:44.240
-507.954,23:18:44.242
-473.754,23:18:44.244
-437.025,23:18:44.246
-394.928,23:18:44.248
-348.565,23:18:44.250
-302.098,23:18:44.251
-259.735,23:18:44.253
-226.37,23:18:44.255
-204.101,23:18:44.257
-192.498,23:18:44.259
-190.438,23:18:44.261
-195.592,23:18:44.263
-205.313,23:18:44.265
-217.373,23:18:44.267
-229.332,23:18:44.269
-239.19,23:18:44.271
-246.037,23:18:44.273
-249.531,23:18:44.275
-249.898,23:18:44.277
-247.979,23:18:44.279
-244.776,23:18:44.281
-241.291,23:18:44.283
-238.639,23:18:44.285
-237.566,23:18:44.287
-238.204,23:18:44.289
-240.471,23:18:44.291
-244.106,23:18:44.292
-248.681,23:18:44.294
-253.838,23:18:44.296
-259.182,23:18:44.298
-264.216,23:18:44.300
-268.606,23:18:44.302
-272.207,23:18:44.304
-274.918,23:18:44.306
-276.698,23:18:44.308
-277.545,23:18:44.310
-277.423,23:18:44.312
-276.38,23:18:44.314
-274.562,23:18:44.316
-272.127,23:18:44.318
-269.274,23:18:44.320
-266.166,23:18:44.322
-262.878,23:18:44.324
-259.463,23:18:44.326
-255.954,23:18:44.328
-252.367,23:18:44.330
-248.729,23:18:44.332
-245.035,23:18:44.333
-241.225,23:18:44.335
-237.305,23:18:44.337
-233.366,23:18:44.339
-229.48,23:18:44.341
-225.727,23:18:44.343
-222.115,23:18:44.345
-218.529,23:18:44.347
-214.89,23:18:44.349
-211.204,23:18:44.351
-207.301,23:18:44.353
-202.801,23:18:44.355
-197.59,23:18:44.357
-191.718,23:18:44.359
-185.117,23:18:44.361
-178.115,23:18:44.363
-170.068,23:18:44.365
-159.074,23:18:44.367
-145.612,23:18:44.369
-131.424,23:18:44.371
-119.458,23:18:44.373
-115.182,23:18:44.375
-118.123,23:18:44.376
-122.832,23:18:44.378
-123.84,23:18:44.380
-113.383,23:18:44.382
-91.189,23:18:44.384
-64.615,23:18:44.386
-39.347,23:18:44.388
-21.58,23:18:44.390
-12.276,23:18:44.392
-5.985,23:18:44.394
0.575,23:18:44.396
9.693,23:18:44.398
21.966,23:18:44.400
35.11,23:18:44.402
48.098,23:18:44.404
60.949,23:18:44.406
73.541,23:18:44.408
86.164,23:18:44.410
98.839,23:18:44.412
111.211,23:18:44.414
123.14,23:18:44.416
134.624,23:18:44.417
145.605,23:18:44.419
156.022,23:18:44.421
165.84,23:18:44.423
175.028,23:18:44.425
183.573,23:18:44.427
191.485,23:18:44.429
198.744,23:18:44.431
205.292,23:18:44.433
211.091,23:18:44.435
216.114,23:18:44.437
220.337,23:18:44.439
223.741,23:18:44.441
226.308,23:18:44.443
228.019,23:18:44.445
228.863,23:18:44.447
228.84,23:18:44.449
227.951,23:18:44.451
226.2,23:18:44.453
223.598,23:18:44.455
220.157,23:18:44.457
215.892,23:18:44.458
210.824,23:18:44.460
204.977,23:18:44.462
198.379,23:18:44.464
191.061,23:18:44.466
183.058,23:18:44.468
174.407,23:18:44.470
165.151,23:18:44.472
155.331,23:18:44.474
144.995,23:18:44.476
134.19,23:18:44.478
122.964,23:18:44.480
111.369,23:18:44.482
99.454,23:18:44.484
87.271,23:18:44.486
74.87,23:18:44.488
62.302,23:18:44.490
49.617,23:18:44.492
36.865,23:18:44.494
24.094,23:18:44.496
11.351,23:18:44.498
-1.317,23:18:44.500
-13.867,23:18:44.501
-26.258,23:18:44.503
-38.45,23:18:44.505
-50.405,23:18:44.507
-62.089,23:18:44.509
-73.469,23:18:44.511
-84.517,23:18:44.513
-95.204,23:18:44.515
-105.508,23:18:44.517
-115.406,23:18:44.519
-124.88,23:18:44.521
-133.915,23:18:44.523
-142.497,23:18:44.525
-150.617,23:18:44.527
-158.268,23:18:44.529
-165.445,23:18:44.531
-172.146,23:18:44.533
-178.373,23:18:44.535
-184.127,23:18:44.537
-189.415,23:18:44.539
-194.243,23:18:44.541
-198.62,23:18:44.542
-202.557,23:18:44.544
-206.067,23:18:44.546
-209.163,23:18:44.548
-211.86,23:18:44.550
-214.173,23:18:44.552
-216.12,23:18:44.554
-217.716,23:18:44.556
-218.98,23:18:44.558
-219.927,23:18:44.560
-220.576,23:18:44.562
-220.943,23:18:44.564
-221.046,23:18:44.566
-220.899,23:18:44.568
-220.521,23:18:44.570
-219.925,23:18:44.572
-219.129,23:18:44.574
-218.145,23:18:44.576
-216.989,23:18:44.578
-215.673,23:18:44.580
-214.211,23:18:44.582
-212.613,23:18:44.583
-210.89,23:18:44.585
-209.053,23:18:44.587
-207.11,23:18:44.589
-205.071,23:18:44.591
-202.944,23:18:44.593
-200.736,23:18:44.595
-198.456,23:18:44.597
-196.109,23:18:44.599
-193.701,23:18:44.601
-191.238,23:18:44.603
-188.724,23:18:44.605
-186.163,23:18:44.607
-183.559,23:18:44.609
-180.913,23:18:44.611
-178.23,23:18:44.613
-175.511,23:18:44.615
-172.76,23:18:44.617
-169.979,23:18:44.619
-167.17,23:18:44.621
-164.339,23:18:44.623
-161.487,23:18:44.625
-158.619,23:18:44.626
-155.738,23:18:44.628
-152.849,23:18:44.630
-149.953,23:18:44.632
-147.055,23:18:44.634
-144.16,23:18:44.636
-141.269,23:18:44.638
-138.388,23:18:44.640
-135.522,23:18:44.642
-132.674,23:18:44.644
-129.851,23:18:44.646
-127.058,23:18:44.648
-124.3,23:18:44.650
-121.582,23:18:44.652
-118.909,23:18:44.654
-116.283,23:18:44.656
-113.71,23:18:44.658
-111.191,23:18:44.660
-108.73,23:18:44.662
-106.328,23:18:44.664
-103.991,23:18:44.666
-101.721,23:18:44.667
-99.524,23:18:44.669
-97.404,23:18:44.671
-95.365,23:18:44.673
-93.412,23:18:44.675
-91.549,23:18:44.677
-89.778,23:18:44.679
-88.102,23:18:44.681
-86.521,23:18:44.683
-85.037,23:18:44.685
-83.649,23:18:44.687
-82.36,23:18:44.689
-81.169,23:18:44.691
-80.078,23:18:44.693
-79.088,23:18:44.695
-78.201,23:18:44.697
-77.421,23:18:44.699
-76.748,23:18:44.701
-76.186,23:18:44.703
-75.734,23:18:44.705
-75.392,23:18:44.707
-75.156,23:18:44.708
-75.025,23:18:44.710
-74.994,23:18:44.712
-75.06,23:18:44.714
-75.217,23:18:44.716
-75.462,23:18:44.718
-75.79,23:18:44.720
-76.2,23:18:44.722
-76.69,23:18:44.724
-77.259,23:18:44.726
-77.904,23:18:44.728
-78.622,23:18:44.730
-79.405,23:18:44.732
-80.246,23:18:44.734
-81.138,23:18:44.736
-82.073,23:18:44.738
-83.045,23:18:44.740
-84.044,23:18:44.742
-85.069,23:18:44.744
-86.126,23:18:44.746
-87.224,23:18:44.748
-88.383,23:18:44.750
-89.621,23:18:44.751
-90.947,23:18:44.753
-92.364,23:18:44.755
-93.868,23:18:44.757
-95.435,23:18:44.759
-97.032,23:18:44.761
-98.629,23:18:44.763
-100.181,23:18:44.765
-101.654,23:18:44.767
-103.033,23:18:44.769
-104.305,23:18:44.771
-105.482,23:18:44.773
-106.572,23:18:44.775
-107.573,23:18:44.777
-108.475,23:18:44.779
-109.237,23:18:44.781
-109.812,23:18:44.783
-110.157,23:18:44.785
-110.237,23:18:44.787
-110.044,23:18:44.789
-109.648,23:18:44.791
-109.166,23:18:44.792
-108.74,23:18:44.794
-108.564,23:18:44.796
-108.772,23:18:44.798
-109.492,23:18:44.800
-110.894,23:18:44.802
-112.968,23:18:44.804
-115.593,23:18:44.806
-118.575,23:18:44.808
-121.58,23:18:44.810
-124.377,23:18:44.812
-126.954,23:18:44.814
-129.173,23:18:44.816
-130.799,23:18:44.818
-131.977,23:18:44.820
-132.916,23:18:44.822
-134.032,23:18:44.824
-136.245,23:18:44.826
-140.031,23:18:44.828
-145.46,23:18:44.830
-152.879,23:18:44.832
-162.516,23:18:44.833
-174.008,23:18:44.835
-186.805,23:18:44.837
-199.653,23:18:44.839
-210.285,23:18:44.841
-216.908,23:18:44.843
-218.08,23:18:44.845
-212.087,23:18:44.847
-197.521,23:18:44.849
-173.554,23:18:44.851
-139.861,23:18:44.853
-97.114,23:18:44.855
-48.303,23:18:44.857
2.382,23:18:44.859
50.945,23:18:44.861
92.922,23:18:44.863
127.295,23:18:44.865
156.941,23:18:44.867
183.028,23:18:44.869
205.561,23:18:44.871
217.523,23:18:44.873
204.538,23:18:44.875
155.867,23:18:44.876
64.881,23:18:44.878
-61.403,23:18:44.880
-202.162,23:18:44.882
-335.177,23:18:44.884
-437.075,23:18:44.886
-497.032,23:18:44.888
-519.29,23:18:44.890
-514.393,23:18:44.892
-499.315,23:18:44.894
-484.453,23:18:44.896
-470.707,23:18:44.898
-454.909,23:18:44.900
-430.605,23:18:44.902
-395.956,23:18:44.904
-354.131,23:18:44.906
-309.16,23:18:44.908
-265.425,23:18:44.910
-225.117,23:18:44.912
-188.803,23:18:44.914
-157.768,23:18:44.916
-132.994,23:18:44.917
-114.717,23:18:44.919
-102.782,23:18:44.921
-96.41,23:18:44.923
-94.843,23:18:44.925
-97.468,23:18:44.927
-103.216,23:18:44.929
-110.227,23:18:44.931
-116.463,23:18:44.933
-120.621,23:18:44.935
-122.11,23:18:44.937
-120.848,23:18:44.939
-116.924,23:18:44.941
-110.415,23:18:44.943
-101.674,23:18:44.945
-91.595,23:18:44.947
-81.335,23:18:44.949
-71.661,23:18:44.951
-62.903,23:18:44.953
-55.107,23:18:44.955
-48.168,23:18:44.957
-42.028,23:18:44.958
-36.624,23:18:44.960
-31.695,23:18:44.962
-26.859,23:18:44.964
-21.891,23:18:44.966
-16.741,23:18:44.968
-11.469,23:18:44.970
-6.222,23:18:44.972
-1.101,23:18:44.974
3.858,23:18:44.976
8.586,23:18:44.978
12.996,23:18:44.980
17.052,23:18:44.982
20.752,23:18:44.984
24.129,23:18:44.986
27.254,23:18:44.988
30.18,23:18:44.990
32.936,23:18:44.992
35.558,23:18:44.994
38.08,23:18:44.996
40.53,23:18:44.998
42.946,23:18:45.000
45.356,23:18:45.001
47.783,23:18:45.003
50.257,23:18:45.005
52.806,23:18:45.007
55.457,23:18:45.009
58.239,23:18:45.011
61.176,23:18:45.013
64.285,23:18:45.015
67.587,23:18:45.017
71.097,23:18:45.019
74.831,23:18:45.021
78.804,23:18:45.023
83.028,23:18:45.025
87.513,23:18:45.027
92.272,23:18:45.029
97.313,23:18:45.031
102.646,23:18:45.033
108.277,23:18:45.035
114.209,23:18:45.037
120.443,23:18:45.039
126.98,23:18:45.041
133.814,23:18:45.042
140.94,23:18:45.044
148.344,23:18:45.046
156.013,23:18:45.048
163.928,23:18:45.050
172.071,23:18:45.052
180.42,23:18:45.054
188.95,23:18:45.056
197.636,23:18:45.058
206.449,23:18:45.060
215.36,23:18:45.062
224.337,23:18:45.064
233.35,23:18:45.066
242.362,23:18:45.068
251.339,23:18:45.070
260.243,23:18:45.072
269.036,23:18:45.074
277.68,23:18:45.076
286.136,23:18:45.078
294.365,23:18:45.080
302.33,23:18:45.082
309.991,23:18:45.083
317.31,23:18:45.085
324.252,23:18:45.087
330.781,23:18:45.089
336.862,23:18:45.091
342.462,23:18:45.093
347.55,23:18:45.095
352.097,23:18:45.097
356.076,23:18:45.099
359.462,23:18:45.101
362.233,23:18:45.103
364.371,23:18:45.105
365.859,23:18:45.107
366.686,23:18:45.109
366.84,23:18:45.111
366.318,23:18:45.113
365.114,23:18:45.115
363.229,23:18:45.117
360.667,23:18:45.119
357.433,23:18:45.121
353.537,23:18:45.123
348.992,23:18:45.125
343.812,23:18:45.126
338.018,23:18:45.128
331.629,23:18:45.130
324.67,23:18:45.132
317.169,23:18:45.134
309.153,23:18:45.136
300.655,23:18:45.138
291.707,23:18:45.140
282.343,23:18:45.142
272.6,23:18:45.144
262.514,23:18:45.146
252.123,23:18:45.148
241.466,23:18:45.150
230.582,23:18:45.152
219.509,23:18:45.154
208.286,23:18:45.156
196.951,23:18:45.158
185.542,23:18:45.160
174.096,23:18:45.162
162.648,23:18:45.164
151.232,23:18:45.166
139.88,23:18:45.167
128.625,23:18:45.169
117.494,23:18:45.171
106.515,23:18:45.173
95.713,23:18:45.175
85.111,23:18:45.177
74.728,23:18:45.179
64.584,23:18:45.181
54.693,23:18:45.183
45.069,23:18:45.185
35.722,23:18:45.187
26.661,23:18:45.189
17.891,23:18:45.191
9.413,23:18:45.193
1.23,23:18:45.195
-6.662,23:18:45.197
-14.267,23:18:45.199
-21.591,23:18:45.201
-28.642,23:18:45.203
-35.43,23:18:45.205
-41.968,23:18:45.207
-48.265,23:18:45.208
-54.337,23:18:45.210
-60.197,23:18:45.212
-65.86,23:18:45.214
-71.34,23:18:45.216
-76.652,23:18:45.218
-81.812,23:18:45.220
-86.833,23:18:45.222
-91.729,23:18:45.224
-96.515,23:18:45.226
-101.202,23:18:45.228
-105.802,23:18:45.230
-110.324,23:18:45.232
-114.779,23:18:45.234
-119.172,23:18:45.236
-123.511,23:18:45.238
-127.798,23:18:45.240
-132.037,23:18:45.242
-136.228,23:18:45.244
-140.371,23:18:45.246
-144.462,23:18:45.248
-148.498,23:18:45.250
-152.473,23:18:45.251
-156.377,23:18:45.253
-160.2,23:18:45.255
-163.931,23:18:45.257
-167.554,23:18:45.259
-171.055,23:18:45.261
-174.414,23:18:45.263
-177.615,23:18:45.265
-180.638,23:18:45.267
-183.462,23:18:45.269
-186.068,23:18:45.271
-188.435,23:18:45.273
-190.544,23:18:45.275
-192.375,23:18:45.277
-193.908,23:18:45.279
-195.124,23:18:45.281
-196.006,23:18:45.283
-196.536,23:18:45.285
-196.699,23:18:45.287
-196.479,23:18:45.289
-195.864,23:18:45.291
-194.844,23:18:45.292
-193.408,23:18:45.294
-191.549,23:18:45.296
-189.265,23:18:45.298
-186.552,23:18:45.300
-183.411,23:18:45.302
-179.845,23:18:45.304
-175.859,23:18:45.306
-171.459,23:18:45.308
-166.655,23:18:45.310
-161.457,23:18:45.312
-155.879,23:18:45.314
-149.939,23:18:45.316
-143.656,23:18:45.318
-137.052,23:18:45.320
-130.154,23:18:45.322
-122.989,23:18:45.324
-115.589,23:18:45.326
-107.987,23:18:45.328
-100.217,23:18:45.330
-92.314,23:18:45.332
-84.314,23:18:45.333
-76.255,23:18:45.335
-68.172,23:18:45.337
-60.105,23:18:45.339
-52.088,23:18:45.341
-44.162,23:18:45.343
-36.363,23:18:45.345
-28.73,23:18:45.347
-21.3,23:18:45.349
-14.112,23:18:45.351
-7.201,23:18:45.353
-0.604,23:18:45.355
5.645,23:18:45.357
11.514,23:18:45.359
16.975,23:18:45.361
22.002,23:18:45.363
26.573,23:18:45.365
30.668,23:18:45.367
34.271,23:18:45.369
37.366,23:18:45.371
39.941,23:18:45.373
41.988,23:18:45.375
43.492,23:18:45.376
44.445,23:18:45.378
44.837,23:18:45.380
44.664,23:18:45.382
43.933,23:18:45.384
42.654,23:18:45.386
40.839,23:18:45.388
38.504,23:18:45.390
35.669,23:18:45.392
32.357,23:18:45.394
28.599,23:18:45.396
24.416,23:18:45.398
19.819,23:18:45.400
14.815,23:18:45.402
9.403,23:18:45.404
3.59,23:18:45.406
-2.59,23:18:45.408
-9.1,23:18:45.410
-15.897,23:18:45.412
-22.92,23:18:45.414
-30.116,23:18:45.416
-37.432,23:18:45.417
-44.791,23:18:45.419
-52.137,23:18:45.421
-59.442,23:18:45.423
-66.685,23:18:45.425
-73.879,23:18:45.427
-81.025,23:18:45.429
-88.077,23:18:45.431
-94.971,23:18:45.433
-101.63,23:18:45.435
-107.981,23:18:45.437
-114.015,23:18:45.439
-119.736,23:18:45.441
-125.148,23:18:45.443
-130.304,23:18:45.445
-135.253,23:18:45.447
-140.067,23:18:45.449
-144.912,23:18:45.451
-149.928,23:18:45.453
-155.185,23:18:45.455
-160.728,23:18:45.457
-166.485,23:18:45.458
-172.373,23:18:45.460
-178.474,23:18:45.462
-184.813,23:18:45.464
-191.334,23:18:45.466
-197.914,23:18:45.468
-204.162,23:18:45.470
-209.672,23:18:45.472
-214.353,23:18:45.474
-218.107,23:18:45.476
-220.744,23:18:45.478
-222.327,23:18:45.480
-222.896,23:18:45.482
-222.716,23:18:45.484
-222.806,23:18:45.486
-224.188,23:18:45.488
-227.287,23:18:45.490
-232.279,23:18:45.492
-238.866,23:18:45.494
-246.137,23:18:45.496
-253.19,23:18:45.498
-258.678,23:18:45.500
-260.309,23:18:45.501
-255.773,23:18:45.503
-243.225,23:18:45.505
-221.596,23:18:45.507
-191.079,23:18:45.509
-152.525,23:18:45.511
-108.296,23:18:45.513
-61.636,23:18:45.515
-15.156,23:18:45.517
26.946,23:18:45.519
62.526,23:18:45.521
90.476,23:18:45.523
104.936,23:18:45.525
102.065,23:18:45.527
77.606,23:18:45.529
27.543,23:18:45.531
-41.967,23:18:45.533
-123.721,23:18:45.535
-210.508,23:18:45.537
-293.48,23:18:45.539
-370.466,23:18:45.541
-439.463,23:18:45.542
-496.691,23:18:45.544
-540.556,23:18:45.546
-568.804,23:18:45.548
-580.554,23:18:45.550
-577.59,23:18:45.552
-561.828,23:18:45.554
-535.556,23:18:45.556
-502.052,23:18:45.558
-464.7,23:18:45.560
-426.555,23:18:45.562
-390.005,23:18:45.564
-356.601,23:18:45.566
-327.389,23:18:45.568
-303.516,23:18:45.570
-286.055,23:18:45.572
-275.005,23:18:45.574
-269.59,23:18:45.576
-268.81,23:18:45.578
-271.609,23:18:45.580
-277.179,23:18:45.582
-284.602,23:18:45.583
-292.374,23:18:45.585
-298.999,23:18:45.587
-303.679,23:18:45.589
-306.126,23:18:45.591
-306.46,23:18:45.593
-305.007,23:18:45.595
-301.943,23:18:45.597
-297.638,23:18:45.599
-292.909,23:18:45.601
-288.448,23:18:45.603
-284.667,23:18:45.605
-281.765,23:18:45.607
-279.625,23:18:45.609
-278.051,23:18:45.611
-276.959,23:18:45.613
-276.151,23:18:45.615
-275.302,23:18:45.617
-274.209,23:18:45.619
-272.754,23:18:45.621
-270.901,23:18:45.623
-268.754,23:18:45.625
-266.401,23:18:45.626
-263.889,23:18:45.628
-261.303,23:18:45.630
-258.727,23:18:45.632
-256.22,23:18:45.634
-253.809,23:18:45.636
-251.477,23:18:45.638
-249.175,23:18:45.640
-246.867,23:18:45.642
-244.519,23:18:45.644
-242.1,23:18:45.646
-239.577,23:18:45.648
-236.905,23:18:45.650
-234.044,23:18:45.652
-230.967,23:18:45.654
-227.644,23:18:45.656
-224.053,23:18:45.658
-220.168,23:18:45.660
-215.958,23:18:45.662
-211.396,23:18:45.664
-206.457,23:18:45.666
-201.12,23:18:45.667
-195.367,23:18:45.669
-189.185,23:18:45.671
-182.56,23:18:45.673
-175.484,23:18:45.675
-167.949,23:18:45.677
-159.952,23:18:45.679
-151.495,23:18:45.681
-142.583,23:18:45.683
-133.218,23:18:45.685
-123.407,23:18:45.687
-113.157,23:18:45.689
-102.478,23:18:45.691
-91.386,23:18:45.693
-79.898,23:18:45.695
-68.032,23:18:45.697
-55.813,23:18:45.699
-43.27,23:18:45.701
-30.435,23:18:45.703
-17.342,23:18:45.705
-4.032,23:18:45.707
9.456,23:18:45.708
23.08,23:18:45.710
36.795,23:18:45.712
50.557,23:18:45.714
64.319,23:18:45.716
78.036,23:18:45.718
91.659,23:18:45.720
105.14,23:18:45.722
118.433,23:18:45.724
131.488,23:18:45.726
144.258,23:18:45.728
156.696,23:18:45.730
168.756,23:18:45.732
180.393,23:18:45.734
191.565,23:18:45.736
202.23,23:18:45.738
212.349,23:18:45.740
221.887,23:18:45.742
230.809,23:18:45.744
239.085,23:18:45.746
246.686,23:18:45.748
253.589,23:18:45.750
259.772,23:18:45.751
265.218,23:18:45.753
269.914,23:18:45.755
273.851,23:18:45.757
277.025,23:18:45.759
279.435,23:18:45.761
281.087,23:18:45.763
281.99,23:18:45.765
282.157,23:18:45.767
281.607,23:18:45.769
280.363,23:18:45.771
278.451,23:18:45.773
275.9,23:18:45.775
272.746,23:18:45.777
269.024,23:18:45.779
264.775,23:18:45.781
260.043,23:18:45.783
254.871,23:18:45.785
249.306,23:18:45.787
243.399,23:18:45.789
237.199,23:18:45.791
230.757,23:18:45.792
224.124,23:18:45.794
217.354,23:18:45.796
210.498,23:18:45.798
203.608,23:18:45.800
196.735,23:18:45.802
189.928,23:18:45.804
183.235,23:18:45.806
176.704,23:18:45.808
170.378,23:18:45.810
164.298,23:18:45.812
158.505,23:18:45.814
153.033,23:18:45.816
147.914,23:18:45.818
143.178,23:18:45.820
138.849,23:18:45.822
134.947,23:18:45.824
131.49,23:18:45.826
128.489,23:18:45.828
125.953,23:18:45.830
123.885,23:18:45.832
122.285,23:18:45.833
121.146,23:18:45.835
120.461,23:18:45.837
120.216,23:18:45.839
120.394,23:18:45.841
120.974,23:18:45.843
121.932,23:18:45.845
123.241,23:18:45.847
124.873,23:18:45.849
126.795,23:18:45.851
128.974,23:18:45.853
131.374,23:18:45.855
133.958,23:18:45.857
136.688,23:18:45.859
139.527,23:18:45.861
142.435,23:18:45.863
145.373,23:18:45.865
148.303,23:18:45.867
151.189,23:18:45.869
153.992,23:18:45.871
156.679,23:18:45.873
159.216,23:18:45.875
161.573,23:18:45.876
163.721,23:18:45.878
165.634,23:18:45.880
167.289,23:18:45.882
168.667,23:18:45.884
169.75,23:18:45.886
170.524,23:18:45.888
170.98,23:18:45.890
171.11,23:18:45.892
170.914,23:18:45.894
170.39,23:18:45.896
169.545,23:18:45.898
168.386,23:18:45.900
166.925,23:18:45.902
165.177,23:18:45.904
163.159,23:18:45.906
160.893,23:18:45.908
158.4,23:18:45.910
155.708,23:18:45.912
152.843,23:18:45.914
149.835,23:18:45.916
146.715,23:18:45.917
143.516,23:18:45.919
140.271,23:18:45.921
137.014,23:18:45.923
133.778,23:18:45.925
130.599,23:18:45.927
127.508,23:18:45.929
124.539,23:18:45.931
121.723,23:18:45.933
119.09,23:18:45.935
116.668,23:18:45.937
114.485,23:18:45.939
112.564,23:18:45.941
110.928,23:18:45.943
109.599,23:18:45.945
108.594,23:18:45.947
107.929,23:18:45.949
107.616,23:18:45.951
107.665,23:18:45.953
108.082,23:18:45.955
108.87,23:18:45.957
110.028,23:18:45.958
111.553,23:18:45.960
113.439,23:18:45.962
115.677,23:18:45.964
118.255,23:18:45.966
121.161,23:18:45.968
124.377,23:18:45.970
127.886,23:18:45.972
131.667,23:18:45.974
135.695,23:18:45.976
139.944,23:18:45.978
144.387,23:18:45.980
148.992,23:18:45.982
153.73,23:18:45.984
158.568,23:18:45.986
163.474,23:18:45.988
168.414,23:18:45.990
173.358,23:18:45.992
178.273,23:18:45.994
183.129,23:18:45.996
187.894,23:18:45.998
192.538,23:18:46.000
197.03,23:18:46.001
201.342,23:18:46.003
205.444,23:18:46.005
209.309,23:18:46.007
212.909,23:18:46.009
216.22,23:18:46.011
219.218,23:18:46.013
221.883,23:18:46.015
224.2,23:18:46.017
226.154,23:18:46.019
227.733,23:18:46.021
228.929,23:18:46.023
229.735,23:18:46.025
230.149,23:18:46.027
230.171,23:18:46.029
229.803,23:18:46.031
229.046,23:18:46.033
227.902,23:18:46.035
226.375,23:18:46.037
224.473,23:18:46.039
222.211,23:18:46.041
219.602,23:18:46.042
216.661,23:18:46.044
213.404,23:18:46.046
209.849,23:18:46.048
206.019,23:18:46.050
201.943,23:18:46.052
197.642,23:18:46.054
193.129,23:18:46.056
188.41,23:18:46.058
183.476,23:18:46.060
178.326,23:18:46.062
172.979,23:18:46.064
167.456,23:18:46.066
161.786,23:18:46.068
156.013,23:18:46.070
150.178,23:18:46.072
144.331,23:18:46.074
138.544,23:18:46.076
132.871,23:18:46.078
127.348,23:18:46.080
121.998,23:18:46.082
116.805,23:18:46.083
111.755,23:18:46.085
106.873,23:18:46.087
102.2,23:18:46.089
97.82,23:18:46.091
93.827,23:18:46.093
90.243,23:18:46.095
87.063,23:18:46.097
84.255,23:18:46.099
81.725,23:18:46.101
79.39,23:18:46.103
77.155,23:18:46.105
74.801,23:18:46.107
72.099,23:18:46.109
68.965,23:18:46.111
65.429,23:18:46.113
61.692,23:18:46.115
58.091,23:18:46.117
54.754,23:18:46.119
51.623,23:18:46.121
48.691,23:18:46.123
45.968,23:18:46.125
43.367,23:18:46.126
40.682,23:18:46.128
37.416,23:18:46.130
32.825,23:18:46.132
26.545,23:18:46.134
18.746,23:18:46.136
9.709,23:18:46.138
-0.166,23:18:46.140
-10.298,23:18:46.142
-20.322,23:18:46.144
-29.666,23:18:46.146
-36.995,23:18:46.148
-41.507,23:18:46.150
-42.143,23:18:46.152
-36.695,23:18:46.154
-25.382,23:18:46.156
-9.665,23:18:46.158
8.091,23:18:46.160
22.577,23:18:46.162
33.907,23:18:46.164
47.605,23:18:46.166
68.593,23:18:46.167
102.948,23:18:46.169
149.224,23:18:46.171
196.95,23:18:46.173
239.79,23:18:46.175
274.459,23:18:46.177
299.47,23:18:46.179
318.749,23:18:46.181
328.62,23:18:46.183
316.264,23:18:46.185
274.388,23:18:46.187
196.675,23:18:46.189
82.824,23:18:46.191
-51.673,23:18:46.193
-192.499,23:18:46.195
-323.313,23:18:46.197
-423.764,23:18:46.199
-488.005,23:18:46.201
-516.343,23:18:46.203
-515.377,23:18:46.205
-501.505,23:18:46.207
-483.05,23:18:46.208
-462.022,23:18:46.210
-437.844,23:18:46.212
-405.285,23:18:46.214
-363.812,23:18:46.216
-317.497,23:18:46.218
-270.556,23:18:46.220
-228.034,23:18:46.222
-193.384,23:18:46.224
-167.69,23:18:46.226
-151.038,23:18:46.228
-142.47,23:18:46.230
-140.527,23:18:46.232
-143.67,23:18:46.234
-150.386,23:18:46.236
-159.128,23:18:46.238
-167.827,23:18:46.240
-174.452,23:18:46.242
-177.827,23:18:46.244
-177.501,23:18:46.246
-173.636,23:18:46.248
-166.799,23:18:46.250
-157.493,23:18:46.251
-146.22,23:18:46.253
-133.922,23:18:46.255
-121.684,23:18:46.257
-110.132,23:18:46.259
-99.578,23:18:46.261
-90.022,23:18:46.263
-81.2,23:18:46.265
-72.961,23:18:46.267
-65.207,23:18:46.269
-57.676,23:18:46.271
-50.046,23:18:46.273
-42.152,23:18:46.275
-33.936,23:18:46.277
-25.459,23:18:46.279
-16.897,23:18:46.281
-8.353,23:18:46.283
0.104,23:18:46.285
8.379,23:18:46.287
16.376,23:18:46.289
24.011,23:18:46.291
31.237,23:18:46.292
38.057,23:18:46.294
44.503,23:18:46.296
50.6,23:18:46.298
56.369,23:18:46.300
61.827,23:18:46.302
66.997,23:18:46.304
71.912,23:18:46.306
76.604,23:18:46.308
81.096,23:18:46.310
85.412,23:18:46.312
89.572,23:18:46.314
93.6,23:18:46.316
97.524,23:18:46.318
101.372,23:18:46.320
105.178,23:18:46.322
108.971,23:18:46.324
112.779,23:18:46.326
116.627,23:18:46.328
120.539,23:18:46.330
124.535,23:18:46.332
128.636,23:18:46.333
132.861,23:18:46.335
137.221,23:18:46.337
141.725,23:18:46.339
146.387,23:18:46.341
151.214,23:18:46.343
156.215,23:18:46.345
161.395,23:18:46.347
166.753,23:18:46.349
172.286,23:18:46.351
177.987,23:18:46.353
183.845,23:18:46.355
189.844,23:18:46.357
195.962,23:18:46.359
202.176,23:18:46.361
208.457,23:18:46.363
214.775,23:18:46.365
221.1,23:18:46.367
227.398,23:18:46.369
233.632,23:18:46.371
239.765,23:18:46.373
245.76,23:18:46.375
251.575,23:18:46.376
257.17,23:18:46.378
262.503,23:18:46.380
267.53,23:18:46.382
272.208,23:18:46.384
276.494,23:18:46.386
280.346,23:18:46.388
283.723,23:18:46.390
286.585,23:18:46.392
288.895,23:18:46.394
290.618,23:18:46.396
291.721,23:18:46.398
292.173,23:18:46.400
291.949,23:18:46.402
291.023,23:18:46.404
289.377,23:18:46.406
286.994,23:18:46.408
283.864,23:18:46.410
279.978,23:18:46.412
275.336,23:18:46.414
269.941,23:18:46.416
263.799,23:18:46.417
256.925,23:18:46.419
249.335,23:18:46.421
241.054,23:18:46.423
232.106,23:18:46.425
222.523,23:18:46.427
212.34,23:18:46.429
201.595,23:18:46.431
190.33,23:18:46.433
178.589,23:18:46.435
166.421,23:18:46.437
153.877,23:18:46.439
141.009,23:18:46.441
127.874,23:18:46.443
114.528,23:18:46.445
101.029,23:18:46.447
87.438,23:18:46.449
73.813,23:18:46.451
60.215,23:18:46.453
46.702,23:18:46.455
33.334,23:18:46.457
20.167,23:18:46.458
7.259,23:18:46.460
-5.339,23:18:46.462
-17.572,23:18:46.464
-29.393,23:18:46.466
-40.755,23:18:46.468
-51.615,23:18:46.470
-61.935,23:18:46.472
-71.68,23:18:46.474
-80.82,23:18:46.476
-89.329,23:18:46.478
-97.185,23:18:46.480
-104.372,23:18:46.482
-110.877,23:18:46.484
-116.694,23:18:46.486
-121.819,23:18:46.488
-126.253,23:18:46.490
-130.002,23:18:46.492
-133.077,23:18:46.494
-135.49,23:18:46.496
-137.261,23:18:46.498
-138.412,23:18:46.500
-138.967,23:18:46.501
-138.957,23:18:46.503
-138.414,23:18:46.505
-137.371,23:18:46.507
-135.867,23:18:46.509
-133.942,23:18:46.511
-131.636,23:18:46.513
-128.991,23:18:46.515
-126.052,23:18:46.517
-122.863,23:18:46.519
-119.468,23:18:46.521
-115.914,23:18:46.523
-112.243,23:18:46.525
-108.501,23:18:46.527
-104.73,23:18:46.529
-100.971,23:18:46.531
-97.265,23:18:46.533
-93.647,23:18:46.535
-90.154,23:18:46.537
-86.816,23:18:46.539
-83.663,23:18:46.541
-80.722,23:18:46.542
-78.014,23:18:46.544
-75.559,23:18:46.546
-73.373,23:18:46.548
-71.47,23:18:46.550
-69.858,23:18:46.552
-68.543,23:18:46.554
-67.527,23:18:46.556
-66.81,23:18:46.558
-66.387,23:18:46.560
-66.25,23:18:46.562
-66.389,23:18:46.564
-66.789,23:18:46.566
-67.433,23:18:46.568
-68.304,23:18:46.570
-69.379,23:18:46.572
-70.634,23:18:46.574
-72.043,23:18:46.576
-73.58,23:18:46.578
-75.217,23:18:46.580
-76.923,23:18:46.582
-78.67,23:18:46.583
-80.427,23:18:46.585
-82.163,23:18:46.587
-83.848,23:18:46.589
-85.453,23:18:46.591
-86.949,23:18:46.593
-88.31,23:18:46.595
-89.51,23:18:46.597
-90.524,23:18:46.599
-91.332,23:18:46.601
-91.912,23:18:46.603
-92.25,23:18:46.605
-92.331,23:18:46.607
-92.144,23:18:46.609
-91.679,23:18:46.611
-90.931,23:18:46.613
-89.897,23:18:46.615
-88.576,23:18:46.617
-86.971,23:18:46.619
-85.086,23:18:46.621
-82.93,23:18:46.623
-80.514,23:18:46.625
-77.851,23:18:46.626
-74.958,23:18:46.628
-71.855,23:18:46.630
-68.562,23:18:46.632
-65.107,23:18:46.634
-61.515,23:18:46.636
-57.816,23:18:46.638
-54.043,23:18:46.640
-50.227,23:18:46.642
-46.401,23:18:46.644
-42.601,23:18:46.646
-38.859,23:18:46.648
-35.212,23:18:46.650
-31.694,23:18:46.652
-28.339,23:18:46.654
-25.181,23:18:46.656
-22.253,23:18:46.658
-19.585,23:18:46.660
-17.21,23:18:46.662
-15.156,23:18:46.664
-13.451,23:18:46.666
-12.117,23:18:46.667
-11.176,23:18:46.669
-10.647,23:18:46.671
-10.544,23:18:46.673
-10.883,23:18:46.675
-11.673,23:18:46.677
-12.923,23:18:46.679
-14.638,23:18:46.681
-16.822,23:18:46.683
-19.479,23:18:46.685
-22.609,23:18:46.687
-26.206,23:18:46.689
-30.263,23:18:46.691
-34.766,23:18:46.693
-39.697,23:18:46.695
-45.033,23:18:46.697
-50.744,23:18:46.699
-56.799,23:18:46.701
-63.166,23:18:46.703
-69.81,23:18:46.705
-76.698,23:18:46.707
-83.797,23:18:46.708
-91.077,23:18:46.710
-98.511,23:18:46.712
-106.075,23:18:46.714
-113.74,23:18:46.716
-121.476,23:18:46.718
-129.252,23:18:46.720
-137.038,23:18:46.722
-144.805,23:18:46.724
-152.528,23:18:46.726
-160.187,23:18:46.728
-167.756,23:18:46.730
-175.216,23:18:46.732
-182.537,23:18:46.734
-189.693,23:18:46.736
-196.666,23:18:46.738
-203.428,23:18:46.740
-209.938,23:18:46.742
-216.145,23:18:46.744
-221.973,23:18:46.746
-227.361,23:18:46.748
-232.278,23:18:46.750
-236.687,23:18:46.751
-240.552,23:18:46.753
-243.836,23:18:46.755
-246.48,23:18:46.757
-248.466,23:18:46.759
-249.839,23:18:46.761
-250.66,23:18:46.763
-251.021,23:18:46.765
-251.014,23:18:46.767
-250.665,23:18:46.769
-250.037,23:18:46.771
-249.27,23:18:46.773
-248.434,23:18:46.775
-247.567,23:18:46.777
-246.601,23:18:46.779
-245.279,23:18:46.781
-243.386,23:18:46.783
-240.86,23:18:46.785
-237.689,23:18:46.787
-233.914,23:18:46.789
-229.785,23:18:46.791
-225.6,23:18:46.792
-221.85,23:18:46.794
-219.326,23:18:46.796
-218.73,23:18:46.798
-220.646,23:18:46.800
-225.378,23:18:46.802
-232.787,23:18:46.804
-242.191,23:18:46.806
-252.462,23:18:46.808
-262.152,23:18:46.810
-269.467,23:18:46.812
-272.526,23:18:46.814
-269.344,23:18:46.816
-258.301,23:18:46.818
-238.458,23:18:46.820
-209.778,23:18:46.822
-173.259,23:18:46.824
-130.588,23:18:46.826
-84.117,23:18:46.828
-36.877,23:18:46.830
7.229,23:18:46.832
43.956,23:18:46.833
69.567,23:18:46.835
80.858,23:18:46.837
76.375,23:18:46.839
56.773,23:18:46.841
21.832,23:18:46.843
-28.391,23:18:46.845
-93.438,23:18:46.847
-174.439,23:18:46.849
-266.437,23:18:46.851
-358.961,23:18:46.853
-441.385,23:18:46.855
-501,23:18:46.857
-533.289,23:18:46.859
-543.608,23:18:46.861
-537.346,23:18:46.863
-521.463,23:18:46.865
-498.721,23:18:46.867
-466.088,23:18:46.869
-423.782,23:18:46.871
-373.696,23:18:46.873
-319.372,23:18:46.875
-266.721,23:18:46.876
-219.45,23:18:46.878
-179.844,23:18:46.880
-149.876,23:18:46.882
-129.702,23:18:46.884
-118.612,23:18:46.886
-115.5,23:18:46.888
-118.269,23:18:46.890
-124.955,23:18:46.892
-133.9,23:18:46.894
-142.945,23:18:46.896
-150.208,23:18:46.898
-154.704,23:18:46.900
-155.994,23:18:46.902
-154.332,23:18:46.904
-150.537,23:18:46.906
-145.168,23:18:46.908
-138.792,23:18:46.910
-132.394,23:18:46.912
-126.701,23:18:46.914
-122.139,23:18:46.916
-118.981,23:18:46.917
-117.062,23:18:46.919
-116.043,23:18:46.921
-115.716,23:18:46.923
-115.785,23:18:46.925
-115.858,23:18:46.927
-115.716,23:18:46.929
-115.19,23:18:46.931
-114.141,23:18:46.933
-112.578,23:18:46.935
-110.546,23:18:46.937
-108.132,23:18:46.939
-105.528,23:18:46.941
-102.906,23:18:46.943
-100.367,23:18:46.945
-97.962,23:18:46.947
-95.687,23:18:46.949
-93.529,23:18:46.951
-91.487,23:18:46.953
-89.536,23:18:46.955
-87.623,23:18:46.957
-85.688,23:18:46.958
-83.678,23:18:46.960
-81.576,23:18:46.962
-79.408,23:18:46.964
-77.198,23:18:46.966
-74.949,23:18:46.968
-72.622,23:18:46.970
-70.148,23:18:46.972
-67.469,23:18:46.974
-64.545,23:18:46.976
-61.338,23:18:46.978
-57.812,23:18:46.980
-53.925,23:18:46.982
-49.636,23:18:46.984
-44.934,23:18:46.986
-39.826,23:18:46.988
-34.325,23:18:46.990
-28.434,23:18:46.992
-22.15,23:18:46.994
-15.456,23:18:46.996
-8.345,23:18:46.998
-0.818,23:18:47.000
7.121,23:18:47.001
15.457,23:18:47.003
24.18,23:18:47.005
33.277,23:18:47.007
42.727,23:18:47.009
52.503,23:18:47.011
62.57,23:18:47.013
72.895,23:18:47.015
83.449,23:18:47.017
94.207,23:18:47.019
105.137,23:18:47.021
116.207,23:18:47.023
127.381,23:18:47.025
138.62,23:18:47.027
149.888,23:18:47.029
161.149,23:18:47.031
172.359,23:18:47.033
183.477,23:18:47.035
194.457,23:18:47.037
205.255,23:18:47.039
215.831,23:18:47.041
226.141,23:18:47.042
236.147,23:18:47.044
245.807,23:18:47.046
255.083,23:18:47.048
263.938,23:18:47.050
272.337,23:18:47.052
280.246,23:18:47.054
287.634,23:18:47.056
294.469,23:18:47.058
300.725,23:18:47.060
306.376,23:18:47.062
311.4,23:18:47.064
315.78,23:18:47.066
319.498,23:18:47.068
322.544,23:18:47.070
324.909,23:18:47.072
326.589,23:18:47.074
327.583,23:18:47.076
327.895,23:18:47.078
327.532,23:18:47.080
326.501,23:18:47.082
324.817,23:18:47.083
322.495,23:18:47.085
319.555,23:18:47.087
316.017,23:18:47.089
311.907,23:18:47.091
307.251,23:18:47.093
302.079,23:18:47.095
296.425,23:18:47.097
290.323,23:18:47.099
283.808,23:18:47.101
276.919,23:18:47.103
269.694,23:18:47.105
262.172,23:18:47.107
254.395,23:18:47.109
246.402,23:18:47.111
238.234,23:18:47.113
229.933,23:18:47.115
221.54,23:18:47.117
213.095,23:18:47.119
204.638,23:18:47.121
196.208,23:18:47.123
187.843,23:18:47.125
179.579,23:18:47.126
171.45,23:18:47.128
163.488,23:18:47.130
155.724,23:18:47.132
148.186,23:18:47.134
140.899,23:18:47.136
133.887,23:18:47.138
127.17,23:18:47.140
120.767,23:18:47.142
114.692,23:18:47.144
108.959,23:18:47.146
103.578,23:18:47.148
98.556,23:18:47.150
93.898,23:18:47.152
89.605,23:18:47.154
85.679,23:18:47.156
82.114,23:18:47.158
78.907,23:18:47.160
76.049,23:18:47.162
73.53,23:18:47.164
71.339,23:18:47.166
69.464,23:18:47.167
67.887,23:18:47.169
66.594,23:18:47.171
65.566,23:18:47.173
64.783,23:18:47.175
64.226,23:18:47.177
63.872,23:18:47.179
63.7,23:18:47.181
63.687,23:18:47.183
63.81,23:18:47.185
64.046,23:18:47.187
64.373,23:18:47.189
64.766,23:18:47.191
65.205,23:18:47.193
65.667,23:18:47.195
66.132,23:18:47.197
66.579,23:18:47.199
66.989,23:18:47.201
67.344,23:18:47.203
67.628,23:18:47.205
67.825,23:18:47.207
67.921,23:18:47.208
67.904,23:18:47.210
67.762,23:18:47.212
67.487,23:18:47.214
67.071,23:18:47.216
66.509,23:18:47.218
65.796,23:18:47.220
64.929,23:18:47.222
63.909,23:18:47.224
62.736,23:18:47.226
61.412,23:18:47.228
59.941,23:18:47.230
58.328,23:18:47.232
56.581,23:18:47.234
54.707,23:18:47.236
52.717,23:18:47.238
50.62,23:18:47.240
48.431,23:18:47.242
46.161,23:18:47.244
43.826,23:18:47.246
41.441,23:18:47.248
39.023,23:18:47.250
36.589,23:18:47.251
34.156,23:18:47.253
31.743,23:18:47.255
29.369,23:18:47.257
27.052,23:18:47.259
24.81,23:18:47.261
22.662,23:18:47.263
20.626,23:18:47.265
18.72,23:18:47.267
16.961,23:18:47.269
15.366,23:18:47.271
13.95,23:18:47.273
12.727,23:18:47.275
11.712,23:18:47.277
10.917,23:18:47.279
10.352,23:18:47.281
10.026,23:18:47.283
9.949,23:18:47.285
10.126,23:18:47.287
10.563,23:18:47.289
11.264,23:18:47.291
12.231,23:18:47.292
13.466,23:18:47.294
14.968,23:18:47.296
16.735,23:18:47.298
18.763,23:18:47.300
21.047,23:18:47.302
23.58,23:18:47.304
26.352,23:18:47.306
29.35,23:18:47.308
32.561,23:18:47.310
35.97,23:18:47.312
39.56,23:18:47.314
43.312,23:18:47.316
47.205,23:18:47.318
51.219,23:18:47.320
55.33,23:18:47.322
59.516,23:18:47.324
63.751,23:18:47.326
68.011,23:18:47.328
72.271,23:18:47.330
76.502,23:18:47.332
80.681,23:18:47.333
84.781,23:18:47.335
88.776,23:18:47.337
92.641,23:18:47.339
96.352,23:18:47.341
99.883,23:18:47.343
103.213,23:18:47.345
106.32,23:18:47.347
109.186,23:18:47.349
111.79,23:18:47.351
114.114,23:18:47.353
116.141,23:18:47.355
117.857,23:18:47.357
119.249,23:18:47.359
120.307,23:18:47.361
121.02,23:18:47.363
121.38,23:18:47.365
121.382,23:18:47.367
121.029,23:18:47.369
120.326,23:18:47.371
119.284,23:18:47.373
117.914,23:18:47.375
116.232,23:18:47.376
114.257,23:18:47.378
112.009,23:18:47.380
109.512,23:18:47.382
106.786,23:18:47.384
103.849,23:18:47.386
100.715,23:18:47.388
97.404,23:18:47.390
93.936,23:18:47.392
90.334,23:18:47.394
86.625,23:18:47.396
82.834,23:18:47.398
78.984,23:18:47.400
75.101,23:18:47.402
71.207,23:18:47.404
67.325,23:18:47.406
63.475,23:18:47.408
59.668,23:18:47.410
55.924,23:18:47.412
52.273,23:18:47.414
48.746,23:18:47.416
45.396,23:18:47.417
42.28,23:18:47.419
39.445,23:18:47.421
36.946,23:18:47.423
34.831,23:18:47.425
33.118,23:18:47.427
31.825,23:18:47.429
30.961,23:18:47.431
30.515,23:18:47.433
30.51,23:18:47.435
30.955,23:18:47.437
31.829,23:18:47.439
33.119,23:18:47.441
34.768,23:18:47.443
36.705,23:18:47.445
38.907,23:18:47.447
41.278,23:18:47.449
43.657,23:18:47.451
45.99,23:18:47.453
48.266,23:18:47.455
50.611,23:18:47.457
53.39,23:18:47.458
56.875,23:18:47.460
61.196,23:18:47.462
66.584,23:18:47.464
73.141,23:18:47.466
80.698,23:18:47.468
88.996,23:18:47.470
97.242,23:18:47.472
104.225,23:18:47.474
109.064,23:18:47.476
111.012,23:18:47.478
109.45,23:18:47.480
104.396,23:18:47.482
96.324,23:18:47.484
86.094,23:18:47.486
75.721,23:18:47.488
67.71,23:18:47.490
64.071,23:18:47.492
67.115,23:18:47.494
78.945,23:18:47.496
100.566,23:18:47.498
132.444,23:18:47.500
172.992,23:18:47.501
217.705,23:18:47.503
262.052,23:18:47.505
302.858,23:18:47.507
339.568,23:18:47.509
373.766,23:18:47.511
404.201,23:18:47.513
425.166,23:18:47.515
426.31,23:18:47.517
396.832,23:18:47.519
333.465,23:18:47.521
239.249,23:18:47.523
122.997,23:18:47.525
-1.492,23:18:47.527
-123.253,23:18:47.529
-230.451,23:18:47.531
-309.435,23:18:47.533
-354.7,23:18:47.535
-366.009,23:18:47.537
-350.12,23:18:47.539
-322.43,23:18:47.541
-292.55,23:18:47.542
-264.045,23:18:47.544
-237.067,23:18:47.546
-206.573,23:18:47.548
-171.167,23:18:47.550
-133.194,23:18:47.552
-95.144,23:18:47.554
-60.717,23:18:47.556
-32.208,23:18:47.558
-10.066,23:18:47.560
5.846,23:18:47.562
16.328,23:18:47.564
22.361,23:18:47.566
24.652,23:18:47.568
23.837,23:18:47.570
20.836,23:18:47.572
16.998,23:18:47.574
13.595,23:18:47.576
11.292,23:18:47.578
10.26,23:18:47.580
10.319,23:18:47.582
11.211,23:18:47.583
12.826,23:18:47.585
14.876,23:18:47.587
16.706,23:18:47.589
17.753,23:18:47.591
17.782,23:18:47.593
16.76,23:18:47.595
14.866,23:18:47.597
12.349,23:18:47.599
9.332,23:18:47.601
6.025,23:18:47.603
2.833,23:18:47.605
0.061,23:18:47.607
-2.099,23:18:47.609
-3.481,23:18:47.611
-4.08,23:18:47.613
-3.954,23:18:47.615
-3.129,23:18:47.617
-1.734,23:18:47.619
0.02,23:18:47.621
1.997,23:18:47.623
4.075,23:18:47.625
6.166,23:18:47.626
8.275,23:18:47.628
10.4,23:18:47.630
12.537,23:18:47.632
14.725,23:18:47.634
16.996,23:18:47.636
19.373,23:18:47.638
21.879,23:18:47.640
24.494,23:18:47.642
27.19,23:18:47.644
29.977,23:18:47.646
32.876,23:18:47.648
35.94,23:18:47.650
39.249,23:18:47.652
42.864,23:18:47.654
46.835,23:18:47.656
51.221,23:18:47.658
56.057,23:18:47.660
61.366,23:18:47.662
67.165,23:18:47.664
73.444,23:18:47.666
80.179,23:18:47.667
87.355,23:18:47.669
94.957,23:18:47.671
102.975,23:18:47.673
111.406,23:18:47.675
120.235,23:18:47.677
129.439,23:18:47.679
138.99,23:18:47.681
148.852,23:18:47.683
158.987,23:18:47.685
169.356,23:18:47.687
179.908,23:18:47.689
190.593,23:18:47.691
201.362,23:18:47.693
212.164,23:18:47.695
222.953,23:18:47.697
233.687,23:18:47.699
244.318,23:18:47.701
254.795,23:18:47.703
265.072,23:18:47.705
275.095,23:18:47.707
284.814,23:18:47.708
294.179,23:18:47.710
303.138,23:18:47.712
311.638,23:18:47.714
319.632,23:18:47.716
327.071,23:18:47.718
333.915,23:18:47.720
340.123,23:18:47.722
345.659,23:18:47.724
350.488,23:18:47.726
354.581,23:18:47.728
357.91,23:18:47.730
360.454,23:18:47.732
362.193,23:18:47.734
363.111,23:18:47.736
363.198,23:18:47.738
362.446,23:18:47.740
360.852,23:18:47.742
358.419,23:18:47.744
355.153,23:18:47.746
351.065,23:18:47.748
346.17,23:18:47.750
340.488,23:18:47.751
334.044,23:18:47.753
326.866,23:18:47.755
318.988,23:18:47.757
310.444,23:18:47.759
301.274,23:18:47.761
291.52,23:18:47.763
281.227,23:18:47.765
270.443,23:18:47.767
259.216,23:18:47.769
247.6,23:18:47.771
235.648,23:18:47.773
223.414,23:18:47.775
210.955,23:18:47.777
198.328,23:18:47.779
185.59,23:18:47.781
172.796,23:18:47.783
160.002,23:18:47.785
147.264,23:18:47.787
134.633,23:18:47.789
122.163,23:18:47.791
109.903,23:18:47.792
97.901,23:18:47.794
86.204,23:18:47.796
74.855,23:18:47.798
63.896,23:18:47.800
53.364,23:18:47.802
43.296,23:18:47.804
33.724,23:18:47.806
24.676,23:18:47.808
16.177,23:18:47.810
8.251,23:18:47.812
0.916,23:18:47.814
-5.814,23:18:47.816
-11.928,23:18:47.818
-17.416,23:18:47.820
-22.275,23:18:47.822
-26.503,23:18:47.824
-30.104,23:18:47.826
-33.081,23:18:47.828
-35.445,23:18:47.830
-37.207,23:18:47.832
-38.383,23:18:47.833
-38.989,23:18:47.835
-39.045,23:18:47.837
-38.575,23:18:47.839
-37.603,23:18:47.841
-36.154,23:18:47.843
-34.258,23:18:47.845
-31.944,23:18:47.847
-29.243,23:18:47.849
-26.186,23:18:47.851
-22.807,23:18:47.853
-19.139,23:18:47.855
-15.216,23:18:47.857
-11.073,23:18:47.859
-6.743,23:18:47.861
-2.261,23:18:47.863
2.338,23:18:47.865
7.023,23:18:47.867
11.759,23:18:47.869
16.516,23:18:47.871
21.262,23:18:47.873
25.968,23:18:47.875
30.604,23:18:47.876
35.142,23:18:47.878
39.558,23:18:47.880
43.825,23:18:47.882
47.922,23:18:47.884
51.825,23:18:47.886
55.516,23:18:47.888
58.977,23:18:47.890
62.193,23:18:47.892
65.149,23:18:47.894
67.833,23:18:47.896
70.235,23:18:47.898
72.346,23:18:47.900
74.161,23:18:47.902
75.675,23:18:47.904
76.885,23:18:47.906
77.791,23:18:47.908
78.394,23:18:47.910
78.698,23:18:47.912
78.707,23:18:47.914
78.429,23:18:47.916
77.873,23:18:47.917
77.047,23:18:47.919
75.963,23:18:47.921
74.634,23:18:47.923
73.072,23:18:47.925
71.292,23:18:47.927
69.308,23:18:47.929
67.138,23:18:47.931
64.796,23:18:47.933
62.301,23:18:47.935
59.67,23:18:47.937
56.923,23:18:47.939
54.077,23:18:47.941
51.152,23:18:47.943
48.166,23:18:47.945
45.138,23:18:47.947
42.088,23:18:47.949
39.032,23:18:47.951
35.988,23:18:47.953
32.972,23:18:47.955
30,23:18:47.957
27.087,23:18:47.958
24.249,23:18:47.960
21.499,23:18:47.962
18.851,23:18:47.964
16.315,23:18:47.966
13.903,23:18:47.968
11.622,23:18:47.970
9.48,23:18:47.972
7.48,23:18:47.974
5.625,23:18:47.976
3.915,23:18:47.978
2.349,23:18:47.980
0.925,23:18:47.982
-0.363,23:18:47.984
-1.518,23:18:47.986
-2.549,23:18:47.988
-3.462,23:18:47.990
-4.268,23:18:47.992
-4.974,23:18:47.994
-5.595,23:18:47.996
-6.144,23:18:47.998
-6.636,23:18:48.000
-7.088,23:18:48.001
-7.516,23:18:48.003
-7.94,23:18:48.005
-8.381,23:18:48.007
-8.86,23:18:48.009
-9.398,23:18:48.011
-10.012,23:18:48.013
-10.72,23:18:48.015
-11.538,23:18:48.017
-12.483,23:18:48.019
-13.573,23:18:48.021
-14.822,23:18:48.023
-16.242,23:18:48.025
-17.851,23:18:48.027
-19.664,23:18:48.029
-21.698,23:18:48.031
-23.973,23:18:48.033
-26.496,23:18:48.035
-29.272,23:18:48.037
-32.301,23:18:48.039
-35.583,23:18:48.041
-39.111,23:18:48.042
-42.885,23:18:48.044
-46.892,23:18:48.046
-51.121,23:18:48.048
-55.57,23:18:48.050
-60.241,23:18:48.052
-65.144,23:18:48.054
-70.298,23:18:48.056
-75.7,23:18:48.058
-81.328,23:18:48.060
-87.156,23:18:48.062
-93.145,23:18:48.064
-99.258,23:18:48.066
-105.468,23:18:48.068
-111.73,23:18:48.070
-117.992,23:18:48.072
-124.229,23:18:48.074
-130.419,23:18:48.076
-136.564,23:18:48.078
-142.689,23:18:48.080
-148.766,23:18:48.082
-154.747,23:18:48.083
-160.571,23:18:48.085
-166.145,23:18:48.087
-171.427,23:18:48.089
-176.414,23:18:48.091
-181.107,23:18:48.093
-185.53,23:18:48.095
-189.717,23:18:48.097
-193.694,23:18:48.099
-197.543,23:18:48.101
-201.385,23:18:48.103
-205.294,23:18:48.105
-209.314,23:18:48.107
-213.413,23:18:48.109
-217.54,23:18:48.111
-221.745,23:18:48.113
-226.042,23:18:48.115
-230.407,23:18:48.117
-234.745,23:18:48.119
-238.75,23:18:48.121
-242.104,23:18:48.123
-244.564,23:18:48.125
-245.816,23:18:48.126
-245.631,23:18:48.128
-244.041,23:18:48.130
-241.198,23:18:48.132
-237.625,23:18:48.134
-234.294,23:18:48.136
-232.095,23:18:48.138
-231.907,23:18:48.140
-234.547,23:18:48.142
-240.164,23:18:48.144
-248.308,23:18:48.146
-258.05,23:18:48.148
-267.515,23:18:48.150
-274.357,23:18:48.152
-276.337,23:18:48.154
-271.078,23:18:48.156
-256.617,23:18:48.158
-232.15,23:18:48.160
-197.763,23:18:48.162
-154.538,23:18:48.164
-105.032,23:18:48.166
-52.571,23:18:48.167
-1.035,23:18:48.169
44.89,23:18:48.171
80.666,23:18:48.173
102.625,23:18:48.175
107.884,23:18:48.177
94.605,23:18:48.179
62.427,23:18:48.181
12.159,23:18:48.183
-53.768,23:18:48.185
-131.127,23:18:48.187
-214.949,23:18:48.189
-300.18,23:18:48.191
-381.926,23:18:48.193
-455.718,23:18:48.195
-517.649,23:18:48.197
-564.601,23:18:48.199
-595.311,23:18:48.201
-610.369,23:18:48.203
-611.297,23:18:48.205
-600.196,23:18:48.207
-579.236,23:18:48.208
-550.677,23:18:48.210
-517.395,23:18:48.212
-482.365,23:18:48.214
-447.458,23:18:48.216
-413.745,23:18:48.218
-382.033,23:18:48.220
-352.981,23:18:48.222
-327.744,23:18:48.224
-307.412,23:18:48.226
-291.976,23:18:48.228
-280.934,23:18:48.230
-274.061,23:18:48.232
-271.025,23:18:48.234
-271.376,23:18:48.236
-274.304,23:18:48.238
-278.079,23:18:48.240
-281.022,23:18:48.242
-282.309,23:18:48.244
-281.499,23:18:48.246
-278.326,23:18:48.248
-272.779,23:18:48.250
-264.849,23:18:48.251
-254.923,23:18:48.253
-244.055,23:18:48.255
-233.121,23:18:48.257
-222.584,23:18:48.259
-212.69,23:18:48.261
-203.419,23:18:48.263
-194.69,23:18:48.265
-186.518,23:18:48.267
-178.729,23:18:48.269
-170.927,23:18:48.271
-162.858,23:18:48.273
-154.417,23:18:48.275
-145.607,23:18:48.277
-136.59,23:18:48.279
-127.493,23:18:48.281
-118.384,23:18:48.283
-109.368,23:18:48.285
-100.571,23:18:48.287
-92.096,23:18:48.289
-84.005,23:18:48.291
-76.312,23:18:48.292
-68.986,23:18:48.294
-62.008,23:18:48.296
-55.37,23:18:48.298
-49.073,23:18:48.300
-43.114,23:18:48.302
-37.474,23:18:48.304
-32.132,23:18:48.306
-27.076,23:18:48.308
-22.288,23:18:48.310
-17.761,23:18:48.312
-13.48,23:18:48.314
-9.422,23:18:48.316
-5.567,23:18:48.318
-1.895,23:18:48.320
1.613,23:18:48.322
4.969,23:18:48.324
8.188,23:18:48.326
11.285,23:18:48.328
14.276,23:18:48.330
17.178,23:18:48.332
20.006,23:18:48.333
22.772,23:18:48.335
25.487,23:18:48.337
28.165,23:18:48.339
30.82,23:18:48.341
33.463,23:18:48.343
36.105,23:18:48.345
38.753,23:18:48.347
41.416,23:18:48.349
44.097,23:18:48.351
46.801,23:18:48.353
49.527,23:18:48.355
52.272,23:18:48.357
55.029,23:18:48.359
57.792,23:18:48.361
60.551,23:18:48.363
63.296,23:18:48.365
66.015,23:18:48.367
68.694,23:18:48.369
71.319,23:18:48.371
73.874,23:18:48.373
76.341,23:18:48.375
78.705,23:18:48.376
80.946,23:18:48.378
83.044,23:18:48.380
84.979,23:18:48.382
86.73,23:18:48.384
88.278,23:18:48.386
89.604,23:18:48.388
90.689,23:18:48.390
91.514,23:18:48.392
92.061,23:18:48.394
92.316,23:18:48.396
92.264,23:18:48.398
91.893,23:18:48.400
91.192,23:18:48.402
90.15,23:18:48.404
88.763,23:18:48.406
87.025,23:18:48.408
84.935,23:18:48.410
82.494,23:18:48.412
79.706,23:18:48.414
76.577,23:18:48.416
73.119,23:18:48.417
69.342,23:18:48.419
65.263,23:18:48.421
60.901,23:18:48.423
56.275,23:18:48.425
51.408,23:18:48.427
46.326,23:18:48.429
41.055,23:18:48.431
35.624,23:18:48.433
30.063,23:18:48.435
24.404,23:18:48.437
18.679,23:18:48.439
12.923,23:18:48.441
7.169,23:18:48.443
1.452,23:18:48.445
-4.193,23:18:48.447
-9.732,23:18:48.449
-15.131,23:18:48.451
-20.357,23:18:48.453
-25.379,23:18:48.455
-30.167,23:18:48.457
-34.691,23:18:48.458
-38.924,23:18:48.460
-42.843,23:18:48.462
-46.423,23:18:48.464
-49.645,23:18:48.466
-52.491,23:18:48.468
-54.946,23:18:48.470
-56.997,23:18:48.472
-58.635,23:18:48.474
-59.854,23:18:48.476
-60.65,23:18:48.478
-61.023,23:18:48.480
-60.975,23:18:48.482
-60.512,23:18:48.484
-59.643,23:18:48.486
-58.378,23:18:48.488
-56.732,23:18:48.490
-54.72,23:18:48.492
-52.362,23:18:48.494
-49.677,23:18:48.496
-46.689,23:18:48.498
-43.422,23:18:48.500
-39.903,23:18:48.501
-36.158,23:18:48.503
-32.215,23:18:48.505
-28.105,23:18:48.507
-23.857,23:18:48.509
-19.5,23:18:48.511
-15.065,23:18:48.513
-10.581,23:18:48.515
-6.077,23:18:48.517
-1.583,23:18:48.519
2.876,23:18:48.521
7.272,23:18:48.523
11.581,23:18:48.525
15.778,23:18:48.527
19.842,23:18:48.529
23.752,23:18:48.531
27.489,23:18:48.533
31.037,23:18:48.535
34.379,23:18:48.537
37.504,23:18:48.539
40.399,23:18:48.541
43.056,23:18:48.542
45.468,23:18:48.544
47.63,23:18:48.546
49.539,23:18:48.548
51.194,23:18:48.550
52.594,23:18:48.552
53.743,23:18:48.554
54.645,23:18:48.556
55.306,23:18:48.558
55.732,23:18:48.560
55.933,23:18:48.562
55.917,23:18:48.564
55.696,23:18:48.566
55.282,23:18:48.568
54.687,23:18:48.570
53.923,23:18:48.572
53.005,23:18:48.574
51.946,23:18:48.576
50.758,23:18:48.578
49.456,23:18:48.580
48.052,23:18:48.582
46.559,23:18:48.583
44.988,23:18:48.585
43.351,23:18:48.587
41.658,23:18:48.589
39.919,23:18:48.591
38.144,23:18:48.593
36.341,23:18:48.595
34.516,23:18:48.597
32.677,23:18:48.599
30.829,23:18:48.601
28.978,23:18:48.603
27.127,23:18:48.605
25.279,23:18:48.607
23.439,23:18:48.609
21.607,23:18:48.611
19.786,23:18:48.613
17.976,23:18:48.615
16.176,23:18:48.617
14.386,23:18:48.619
12.606,23:18:48.621
10.832,23:18:48.623
9.062,23:18:48.625
7.295,23:18:48.626
5.525,23:18:48.628
3.751,23:18:48.630
1.968,23:18:48.632
0.173,23:18:48.634
-1.638,23:18:48.636
-3.468,23:18:48.638
-5.32,23:18:48.640
-7.198,23:18:48.642
-9.105,23:18:48.644
-11.041,23:18:48.646
-13.009,23:18:48.648
-15.01,23:18:48.650
-17.043,23:18:48.652
-19.107,23:18:48.654
-21.202,23:18:48.656
-23.324,23:18:48.658
-25.471,23:18:48.660
-27.639,23:18:48.662
-29.825,23:18:48.664
-32.025,23:18:48.666
-34.237,23:18:48.667
-36.457,23:18:48.669
-38.682,23:18:48.671
-40.911,23:18:48.673
-43.141,23:18:48.675
-45.37,23:18:48.677
-47.596,23:18:48.679
-49.816,23:18:48.681
-52.028,23:18:48.683
-54.231,23:18:48.685
-56.421,23:18:48.687
-58.598,23:18:48.689
-60.76,23:18:48.691
-62.905,23:18:48.693
-65.034,23:18:48.695
-67.148,23:18:48.697
-69.247,23:18:48.699
-71.334,23:18:48.701
-73.41,23:18:48.703
-75.476,23:18:48.705
-77.534,23:18:48.707
-79.587,23:18:48.708
-81.639,23:18:48.710
-83.693,23:18:48.712
-85.754,23:18:48.714
-87.83,23:18:48.716
-89.928,23:18:48.718
-92.059,23:18:48.720
-94.232,23:18:48.722
-96.458,23:18:48.724
-98.745,23:18:48.726
-101.098,23:18:48.728
-103.523,23:18:48.730
-106.019,23:18:48.732
-108.587,23:18:48.734
-111.222,23:18:48.736
-113.926,23:18:48.738
-116.698,23:18:48.740
-119.538,23:18:48.742
-122.451,23:18:48.744
-125.445,23:18:48.746
-128.526,23:18:48.748
-131.704,23:18:48.750
-134.987,23:18:48.751
-138.378,23:18:48.753
-141.886,23:18:48.755
-145.517,23:18:48.757
-149.276,23:18:48.759
-153.174,23:18:48.761
-157.215,23:18:48.763
-161.405,23:18:48.765
-165.747,23:18:48.767
-170.233,23:18:48.769
-174.855,23:18:48.771
-179.607,23:18:48.773
-184.467,23:18:48.775
-189.407,23:18:48.777
-194.381,23:18:48.779
-199.331,23:18:48.781
-204.212,23:18:48.783
-208.982,23:18:48.785
-213.595,23:18:48.787
-217.993,23:18:48.789
-222.104,23:18:48.791
-225.871,23:18:48.792
-229.275,23:18:48.794
-232.34,23:18:48.796
-235.12,23:18:48.798
-237.685,23:18:48.800
-240.077,23:18:48.802
-242.353,23:18:48.804
-244.621,23:18:48.806
-246.903,23:18:48.808
-249.185,23:18:48.810
-251.382,23:18:48.812
-253.228,23:18:48.814
-254.529,23:18:48.816
-255.215,23:18:48.818
-255.169,23:18:48.820
-254.377,23:18:48.822
-253.12,23:18:48.824
-251.79,23:18:48.826
-250.983,23:18:48.828
-251.627,23:18:48.830
-254.302,23:18:48.832
-259.356,23:18:48.833
-267.31,23:18:48.835
-278.21,23:18:48.837
-291.467,23:18:48.839
-306.117,23:18:48.841
-320.53,23:18:48.843
-332.565,23:18:48.845
-340.578,23:18:48.847
-343.17,23:18:48.849
-338.41,23:18:48.851
-324.938,23:18:48.853
-302.24,23:18:48.855
-270.203,23:18:48.857
-230.994,23:18:48.859
-188.836,23:18:48.861
-147.254,23:18:48.863
-109.669,23:18:48.865
-76.631,23:18:48.867
-44.475,23:18:48.869
-11.692,23:18:48.871
20.555,23:18:48.873
43.983,23:18:48.875
43.259,23:18:48.876
7.148,23:18:48.878
-70.123,23:18:48.880
-180.769,23:18:48.882
-304.25,23:18:48.884
-419.424,23:18:48.886
-505.171,23:18:48.888
-552.179,23:18:48.890
-564.611,23:18:48.892
-551.893,23:18:48.894
-529.078,23:18:48.896
-505.389,23:18:48.898
-481.948,23:18:48.900
-456.902,23:18:48.902
-425.196,23:18:48.904
-385.868,23:18:48.906
-342.383,23:18:48.908
-298.83,23:18:48.910
-260.068,23:18:48.912
-228.692,23:18:48.914
-205.177,23:18:48.916
-189.564,23:18:48.917
-180.951,23:18:48.919
-177.895,23:18:48.921
-178.863,23:18:48.923
-182.052,23:18:48.925
-185.632,23:18:48.927
-188.305,23:18:48.929
-189.029,23:18:48.931
-187.107,23:18:48.933
-182.4,23:18:48.935
-175.194,23:18:48.937
-166.115,23:18:48.939
-156.033,23:18:48.941
-145.9,23:18:48.943
-136.358,23:18:48.945
-127.823,23:18:48.947
-120.535,23:18:48.949
-114.501,23:18:48.951
-109.649,23:18:48.953
-105.797,23:18:48.955
-102.616,23:18:48.957
-99.71,23:18:48.958
-96.834,23:18:48.960
-93.878,23:18:48.962
-90.82,23:18:48.964
-87.727,23:18:48.966
-84.635,23:18:48.968
-81.567,23:18:48.970
-78.588,23:18:48.972
-75.79,23:18:48.974
-73.237,23:18:48.976
-70.967,23:18:48.978
-68.997,23:18:48.980
-67.296,23:18:48.982
-65.83,23:18:48.984
-64.579,23:18:48.986
-63.517,23:18:48.988
-62.613,23:18:48.990
-61.833,23:18:48.992
-61.127,23:18:48.994
-60.437,23:18:48.996
-59.721,23:18:48.998
-58.943,23:18:49.000
-58.071,23:18:49.001
-57.073,23:18:49.003
-55.911,23:18:49.005
-54.545,23:18:49.007
-52.936,23:18:49.009
-51.047,23:18:49.011
-48.842,23:18:49.013
-46.292,23:18:49.015
-43.365,23:18:49.017
-40.034,23:18:49.019
-36.275,23:18:49.021
-32.07,23:18:49.023
-27.41,23:18:49.025
-22.291,23:18:49.027
-16.707,23:18:49.029
-10.656,23:18:49.031
-4.138,23:18:49.033
2.847,23:18:49.035
10.292,23:18:49.037
18.184,23:18:49.039
26.509,23:18:49.041
35.249,23:18:49.042
44.379,23:18:49.044
53.868,23:18:49.046
63.681,23:18:49.048
73.779,23:18:49.050
84.118,23:18:49.052
94.654,23:18:49.054
105.34,23:18:49.056
116.127,23:18:49.058
126.964,23:18:49.060
137.8,23:18:49.062
148.582,23:18:49.064
159.255,23:18:49.066
169.767,23:18:49.068
180.062,23:18:49.070
190.085,23:18:49.072
199.783,23:18:49.074
209.101,23:18:49.076
217.99,23:18:49.078
226.398,23:18:49.080
234.28,23:18:49.082
241.591,23:18:49.083
248.288,23:18:49.085
254.332,23:18:49.087
259.689,23:18:49.089
264.326,23:18:49.091
268.215,23:18:49.093
271.331,23:18:49.095
273.653,23:18:49.097
275.167,23:18:49.099
275.862,23:18:49.101
275.733,23:18:49.103
274.78,23:18:49.105
273.007,23:18:49.107
270.426,23:18:49.109
267.052,23:18:49.111
262.908,23:18:49.113
258.017,23:18:49.115
252.409,23:18:49.117
246.12,23:18:49.119
239.185,23:18:49.121
231.647,23:18:49.123
223.55,23:18:49.125
214.94,23:18:49.126
205.867,23:18:49.128
196.383,23:18:49.130
186.54,23:18:49.132
176.393,23:18:49.134
165.997,23:18:49.136
155.408,23:18:49.138
144.68,23:18:49.140
133.87,23:18:49.142
123.032,23:18:49.144
112.219,23:18:49.146
101.484,23:18:49.148
90.878,23:18:49.150
80.451,23:18:49.152
70.25,23:18:49.154
60.321,23:18:49.156
50.705,23:18:49.158
41.443,23:18:49.160
32.569,23:18:49.162
24.118,23:18:49.164
16.116,23:18:49.166
8.59,23:18:49.167
1.558,23:18:49.169
